2014-01-02,2014-01-03,2014-01-06,2014-01-07,2014-01-08,2014-01-09,2014-01-10,2014-01-13,2014-01-14,2014-01-15,2014-01-16,2014-01-17,2014-01-21,2014-01-22,2014-01-23,2014-01-24,2014-01-27,2014-01-28,2014-01-29,2014-01-30,2014-01-31,2014-02-03,2014-02-04,2014-02-05,2014-02-06,2014-02-07,2014-02-10,2014-02-11,2014-02-12,2014-02-13,2014-02-14,2014-02-18,2014-02-19,2014-02-20,2014-02-21,2014-02-24,2014-02-25,2014-02-26,2014-02-27,2014-02-28,2014-03-03,2014-03-04,2014-03-05,2014-03-06,2014-03-07,2014-03-10,2014-03-11,2014-03-12,2014-03-13,2014-03-14,2014-03-17,2014-03-18,2014-03-19,2014-03-20,2014-03-21,2014-03-24,2014-03-25,2014-03-26,2014-03-27,2014-03-28,2014-03-31,2014-04-01,2014-04-02,2014-04-03,2014-04-04,2014-04-07,2014-04-08,2014-04-09,2014-04-10,2014-04-11,2014-04-14,2014-04-15,2014-04-16,2014-04-17,2014-04-21,2014-04-22,2014-04-23,2014-04-24,2014-04-25,2014-04-28,2014-04-29,2014-04-30,2014-05-01,2014-05-02,2014-05-05,2014-05-06,2014-05-07,2014-05-08,2014-05-09,2014-05-12,2014-05-13,2014-05-14,2014-05-15,2014-05-16,2014-05-19,2014-05-20,2014-05-21,2014-05-22,2014-05-23,2014-05-27,2014-05-28,2014-05-29,2014-05-30,2014-06-02,2014-06-03,2014-06-04,2014-06-05,2014-06-06,2014-06-09,2014-06-10,2014-06-11,2014-06-12,2014-06-13,2014-06-16,2014-06-17,2014-06-18,2014-06-19,2014-06-20,2014-06-23,2014-06-24,2014-06-25,2014-06-26,2014-06-27,2014-06-30,2014-07-01,2014-07-02,2014-07-03,2014-07-07,2014-07-08,2014-07-09,2014-07-10,2014-07-11,2014-07-14,2014-07-15,2014-07-16,2014-07-17,2014-07-18,2014-07-21,2014-07-22,2014-07-23,2014-07-24,2014-07-25,2014-07-28,2014-07-29,2014-07-30,2014-07-31,2014-08-01,2014-08-04,2014-08-05,2014-08-06,2014-08-07,2014-08-08,2014-08-11,2014-08-12,2014-08-13,2014-08-14,2014-08-15,2014-08-18,2014-08-19,2014-08-20,2014-08-21,2014-08-22,2014-08-25,2014-08-26,2014-08-27,2014-08-28,2014-08-29,2014-09-02,2014-09-03,2014-09-04,2014-09-05,2014-09-08,2014-09-09,2014-09-10,2014-09-11,2014-09-12,2014-09-15,2014-09-16,2014-09-17,2014-09-18,2014-09-19,2014-09-22,2014-09-23,2014-09-24,2014-09-25,2014-09-26,2014-09-29,2014-09-30,2014-10-01,2014-10-02,2014-10-03,2014-10-06,2014-10-07,2014-10-08,2014-10-09,2014-10-10,2014-10-13,2014-10-14,2014-10-15,2014-10-16,2014-10-17,2014-10-20,2014-10-21,2014-10-22,2014-10-23,2014-10-24,2014-10-27,2014-10-28,2014-10-29,2014-10-30,2014-10-31,2014-11-03,2014-11-04,2014-11-05,2014-11-06,2014-11-07,2014-11-10,2014-11-11,2014-11-12,2014-11-13,2014-11-14,2014-11-17,2014-11-18,2014-11-19,2014-11-20,2014-11-21,2014-11-24,2014-11-25,2014-11-26,2014-11-28,2014-12-01,2014-12-02,2014-12-03,2014-12-04,2014-12-05,2014-12-08,2014-12-09,2014-12-10,2014-12-11,2014-12-12,2014-12-15,2014-12-16,2014-12-17,2014-12-18,2014-12-19,2014-12-22,2014-12-23,2014-12-24,2014-12-26,2014-12-29,2014-12-30,2014-12-31,2015-01-02,2015-01-05,2015-01-06,2015-01-07,2015-01-08,2015-01-09,2015-01-12,2015-01-13,2015-01-14,2015-01-15,2015-01-16,2015-01-20,2015-01-21,2015-01-22,2015-01-23,2015-01-26,2015-01-27,2015-01-28,2015-01-29,2015-01-30,2015-02-02,2015-02-03,2015-02-04,2015-02-05,2015-02-06,2015-02-09,2015-02-10,2015-02-11,2015-02-12,2015-02-13,2015-02-17,2015-02-18,2015-02-19,2015-02-20,2015-02-23,2015-02-24,2015-02-25,2015-02-26,2015-02-27,2015-03-02,2015-03-03,2015-03-04,2015-03-05,2015-03-06,2015-03-09,2015-03-10,2015-03-11,2015-03-12,2015-03-13,2015-03-16,2015-03-17,2015-03-18,2015-03-19,2015-03-20,2015-03-23,2015-03-24,2015-03-25,2015-03-26,2015-03-27,2015-03-30,2015-03-31,2015-04-01,2015-04-02,2015-04-06,2015-04-07,2015-04-08,2015-04-09,2015-04-10,2015-04-13,2015-04-14,2015-04-15,2015-04-16,2015-04-17,2015-04-20,2015-04-21,2015-04-22,2015-04-23,2015-04-24,2015-04-27,2015-04-28,2015-04-29,2015-04-30,2015-05-01,2015-05-04,2015-05-05,2015-05-06,2015-05-07,2015-05-08,2015-05-11,2015-05-12,2015-05-13,2015-05-14,2015-05-15,2015-05-18,2015-05-19,2015-05-20,2015-05-21,2015-05-22,2015-05-26,2015-05-27,2015-05-28,2015-05-29,2015-06-01,2015-06-02,2015-06-03,2015-06-04,2015-06-05,2015-06-08,2015-06-09,2015-06-10,2015-06-11,2015-06-12,2015-06-15,2015-06-16,2015-06-17,2015-06-18,2015-06-19,2015-06-22,2015-06-23,2015-06-24,2015-06-25,2015-06-26,2015-06-29,2015-06-30,2015-07-01,2015-07-02,2015-07-06,2015-07-07,2015-07-08,2015-07-09,2015-07-10,2015-07-13,2015-07-14,2015-07-15,2015-07-16,2015-07-17,2015-07-20,2015-07-21,2015-07-22,2015-07-23,2015-07-24,2015-07-27,2015-07-28,2015-07-29,2015-07-30,2015-07-31,2015-08-03,2015-08-04,2015-08-05,2015-08-06,2015-08-07,2015-08-10,2015-08-11,2015-08-12,2015-08-13,2015-08-14,2015-08-17,2015-08-18,2015-08-19,2015-08-20,2015-08-21,2015-08-24,2015-08-25,2015-08-26,2015-08-27,2015-08-28,2015-08-31,2015-09-01,2015-09-02,2015-09-03,2015-09-04,2015-09-08,2015-09-09,2015-09-10,2015-09-11,2015-09-14,2015-09-15,2015-09-16,2015-09-17,2015-09-18,2015-09-21,2015-09-22,2015-09-23,2015-09-24,2015-09-25,2015-09-28,2015-09-29,2015-09-30,2015-10-01,2015-10-02,2015-10-05,2015-10-06,2015-10-07,2015-10-08,2015-10-09,2015-10-12,2015-10-13,2015-10-14,2015-10-15,2015-10-16,2015-10-19,2015-10-20,2015-10-21,2015-10-22,2015-10-23,2015-10-26,2015-10-27,2015-10-28,2015-10-29,2015-10-30,2015-11-02,2015-11-03,2015-11-04,2015-11-05,2015-11-06,2015-11-09,2015-11-10,2015-11-11,2015-11-12,2015-11-13,2015-11-16,2015-11-17,2015-11-18,2015-11-19,2015-11-20,2015-11-23,2015-11-24,2015-11-25,2015-11-27,2015-11-30,2015-12-01,2015-12-02,2015-12-03,2015-12-04,2015-12-07,2015-12-08,2015-12-09,2015-12-10,2015-12-11,2015-12-14,2015-12-15,2015-12-16,2015-12-17,2015-12-18,2015-12-21,2015-12-22,2015-12-23,2015-12-24,2015-12-28,2015-12-29,2015-12-30,2015-12-31,2016-01-04,2016-01-05,2016-01-06,2016-01-07,2016-01-08,2016-01-11,2016-01-12,2016-01-13,2016-01-14,2016-01-15,2016-01-19,2016-01-20,2016-01-21,2016-01-22,2016-01-25,2016-01-26,2016-01-27,2016-01-28,2016-01-29,2016-02-01,2016-02-02,2016-02-03,2016-02-04,2016-02-05,2016-02-08,2016-02-09,2016-02-10,2016-02-11,2016-02-12,2016-02-16,2016-02-17,2016-02-18,2016-02-19,2016-02-22,2016-02-23,2016-02-24,2016-02-25,2016-02-26,2016-02-29,2016-03-01,2016-03-02,2016-03-03,2016-03-04,2016-03-07,2016-03-08,2016-03-09,2016-03-10,2016-03-11,2016-03-14,2016-03-15,2016-03-16,2016-03-17,2016-03-18,2016-03-21,2016-03-22,2016-03-23,2016-03-24,2016-03-28,2016-03-29,2016-03-30,2016-03-31,2016-04-01,2016-04-04,2016-04-05,2016-04-06,2016-04-07,2016-04-08,2016-04-11,2016-04-12,2016-04-13,2016-04-14,2016-04-15,2016-04-18,2016-04-19,2016-04-20,2016-04-21,2016-04-22,2016-04-25,2016-04-26,2016-04-27,2016-04-28,2016-04-29,2016-05-02,2016-05-03,2016-05-04,2016-05-05,2016-05-06,2016-05-09,2016-05-10,2016-05-11,2016-05-12,2016-05-13,2016-05-16,2016-05-17,2016-05-18,2016-05-19,2016-05-20,2016-05-23,2016-05-24,2016-05-25,2016-05-26,2016-05-27,2016-05-31,2016-06-01,2016-06-02,2016-06-03,2016-06-06,2016-06-07,2016-06-08,2016-06-09,2016-06-10,2016-06-13,2016-06-14,2016-06-15,2016-06-16,2016-06-17,2016-06-20,2016-06-21,2016-06-22,2016-06-23,2016-06-24,2016-06-27,2016-06-28,2016-06-29,2016-06-30,2016-07-01,2016-07-05,2016-07-06,2016-07-07,2016-07-08,2016-07-11,2016-07-12,2016-07-13,2016-07-14,2016-07-15,2016-07-18,2016-07-19,2016-07-20,2016-07-21,2016-07-22,2016-07-25,2016-07-26,2016-07-27,2016-07-28,2016-07-29,2016-08-01,2016-08-02,2016-08-03,2016-08-04,2016-08-05,2016-08-08,2016-08-09,2016-08-10,2016-08-11,2016-08-12,2016-08-15,2016-08-16,2016-08-17,2016-08-18,2016-08-19,2016-08-22,2016-08-23,2016-08-24,2016-08-25,2016-08-26,2016-08-29,2016-08-30,2016-08-31,2016-09-01,2016-09-02,2016-09-06,2016-09-07,2016-09-08,2016-09-09,2016-09-12,2016-09-13,2016-09-14,2016-09-15,2016-09-16,2016-09-19,2016-09-20,2016-09-21,2016-09-22,2016-09-23,2016-09-26,2016-09-27,2016-09-28,2016-09-29,2016-09-30,2016-10-03,2016-10-04,2016-10-05,2016-10-06,2016-10-07,2016-10-10,2016-10-11,2016-10-12,2016-10-13,2016-10-14,2016-10-17,2016-10-18,2016-10-19,2016-10-20,2016-10-21,2016-10-24,2016-10-25,2016-10-26,2016-10-27,2016-10-28,2016-10-31,2016-11-01,2016-11-02,2016-11-03,2016-11-04,2016-11-07,2016-11-08,2016-11-09,2016-11-10,2016-11-11,2016-11-14,2016-11-15,2016-11-16,2016-11-17,2016-11-18,2016-11-21,2016-11-22,2016-11-23,2016-11-25,2016-11-28,2016-11-29,2016-11-30,2016-12-01,2016-12-02,2016-12-05,2016-12-06,2016-12-07,2016-12-08,2016-12-09,2016-12-12,2016-12-13,2016-12-14,2016-12-15,2016-12-16,2016-12-19,2016-12-20,2016-12-21,2016-12-22,2016-12-23,2016-12-27,2016-12-28,2016-12-29,2016-12-30,2017-01-03,2017-01-04,2017-01-05,2017-01-06,2017-01-09,2017-01-10,2017-01-11,2017-01-12,2017-01-13,2017-01-17,2017-01-18,2017-01-19,2017-01-20,2017-01-23,2017-01-24,2017-01-25,2017-01-26,2017-01-27,2017-01-30,2017-01-31,2017-02-01,2017-02-02,2017-02-03,2017-02-06,2017-02-07,2017-02-08,2017-02-09,2017-02-10,2017-02-13,2017-02-14,2017-02-15,2017-02-16,2017-02-17,2017-02-21,2017-02-22,2017-02-23,2017-02-24,2017-02-27,2017-02-28,2017-03-01,2017-03-02,2017-03-03,2017-03-06,2017-03-07,2017-03-08,2017-03-09,2017-03-10,2017-03-13,2017-03-14,2017-03-15,2017-03-16,2017-03-17,2017-03-20,2017-03-21,2017-03-22,2017-03-23,2017-03-24,2017-03-27,2017-03-28,2017-03-29,2017-03-30,2017-03-31,2017-04-03,2017-04-04,2017-04-05,2017-04-06,2017-04-07,2017-04-10,2017-04-11,2017-04-12,2017-04-13,2017-04-17,2017-04-18,2017-04-19,2017-04-20,2017-04-21,2017-04-24,2017-04-25,2017-04-26,2017-04-27,2017-04-28,2017-05-01,2017-05-02,2017-05-03,2017-05-04,2017-05-05,2017-05-08,2017-05-09,2017-05-10,2017-05-11,2017-05-12,2017-05-15,2017-05-16,2017-05-17,2017-05-18,2017-05-19,2017-05-22,2017-05-23,2017-05-24,2017-05-25,2017-05-26,2017-05-30,2017-05-31,2017-06-01,2017-06-02,2017-06-05,2017-06-06,2017-06-07,2017-06-08,2017-06-09,2017-06-12,2017-06-13,2017-06-14,2017-06-15,2017-06-16,2017-06-19,2017-06-20,2017-06-21,2017-06-22,2017-06-23,2017-06-26,2017-06-27,2017-06-28,2017-06-29,2017-06-30,2017-07-03,2017-07-05,2017-07-06,2017-07-07,2017-07-10,2017-07-11,2017-07-12,2017-07-13,2017-07-14,2017-07-17,2017-07-18,2017-07-19,2017-07-20,2017-07-21,2017-07-24,2017-07-25,2017-07-26,2017-07-27,2017-07-28,2017-07-31,2017-08-01,2017-08-02,2017-08-03,2017-08-04,2017-08-07,2017-08-08,2017-08-09,2017-08-10,2017-08-11,2017-08-14,2017-08-15,2017-08-16,2017-08-17,2017-08-18,2017-08-21,2017-08-22,2017-08-23,2017-08-24,2017-08-25,2017-08-28,2017-08-29,2017-08-30,2017-08-31,2017-09-01,2017-09-05,2017-09-06,2017-09-07,2017-09-08,2017-09-11,2017-09-12,2017-09-13,2017-09-14,2017-09-15,2017-09-18,2017-09-19,2017-09-20,2017-09-21,2017-09-22,2017-09-25,2017-09-26,2017-09-27,2017-09-28,2017-09-29,2017-10-02,2017-10-03,2017-10-04,2017-10-05,2017-10-06,2017-10-09,2017-10-10,2017-10-11,2017-10-12,2017-10-13,2017-10-16,2017-10-17,2017-10-18,2017-10-19,2017-10-20,2017-10-23,2017-10-24,2017-10-25,2017-10-26,2017-10-27,2017-10-30,2017-10-31,2017-11-01,2017-11-02,2017-11-03,2017-11-06,2017-11-07,2017-11-08,2017-11-09,2017-11-10,2017-11-13,2017-11-14,2017-11-15,2017-11-16,2017-11-17,2017-11-20,2017-11-21,2017-11-22,2017-11-24,2017-11-27,2017-11-28,2017-11-29,2017-11-30,2017-12-01,2017-12-04,2017-12-05,2017-12-06,2017-12-07,2017-12-08,2017-12-11,2017-12-12,2017-12-13,2017-12-14,2017-12-15,2017-12-18,2017-12-19,2017-12-20,2017-12-21,2017-12-22,2017-12-26,2017-12-27,2017-12-28,2017-12-29
83.285,82.875,82.385,82.535,83.01,83.705,83.73,83.705,82.03,84.73,85.05,85.48,84.58,85.0975,84.89,84.025,82.585,81.69,82.96,82.55,82.335,82.305,81.335,84.05,83.845,87.385,88.38,87.15,87.875,86.79,87.855,89.06,89.525,89.52,90.235,89.215,91.425,91.805,93.205,93.86,94.525,95.235,96.02,95.36,95.76,94.96,94.92,91.8,93.125,91.485,93.3,93.7,94.675,93.81,95.955,96.125,95.59,96.275,96.145,97.235,99.235,99.38,98.27,99.33,102.67,99.72,97.78,98.94,98.63,97.67,99.52,99.63,101.48,100.84,102.98,103.27,102.53,105.5,103.25,99.94,98.88,99.07,98.33,97.3,96.04,102.8,104.61,104.03,102.0,102.57,104.58,105.39,103.97,102.57,102.5,102.22,102.7,104.29,103.89,104.44,104.86,105.42,106.27,105.95,105.45,106.48,106.35,108.14,110.09,109.39,108.25,111.46,111.77,115.21,113.95,112.58,113.14,117.05,118.52,117.18,113.32,115.68,115.23,116.08,117.44,116.86,116.27,116.4,115.37,116.1,114.88,115.74,114.65,114.91,114.62,117.48,115.36,115.86,116.75,116.7,116.48,115.58,114.82,113.27,114.83,112.84,108.65,108.74,111.81,107.03,107.63,106.07,108.72,107.89,107.66,107.22,103.97,106.65,106.1,107.09,107.5,106.59,106.93,108.86,109.43,108.32,108.8,109.57,108.85,107.76,104.35,104.07,101.63,100.93,100.93,102.5,100.8,102.33,105.65,105.82,105.24,103.82,101.55,100.94,102.64,100.37,100.8,101.85,99.21,95.76,97.72,96.84,95.02,93.31,93.64,91.07,89.25,85.4,82.03,85.19,94.2,91.63,94.35,96.76,94.24,92.95,90.28,88.81,94.24,92.57,91.95,95.05,89.67,95.5,95.19,99.72,101.01,98.5,98.68,96.5,96.32,97.01,96.32,98.75,98.45,102.49,101.18,100.28,96.62,87.16,85.52,87.38,91.71,90.79,91.91,89.08,87.0,86.38,87.19,85.31,87.09,83.86,87.61,93.83,93.63,94.21,95.74,95.61,94.9,94.55,93.5,91.97,91.01,89.96,85.84,85.18,84.72,87.02,85.11,84.97,84.07,89.04,86.86,89.09,90.59,91.38,90.07,91.23,91.94,92.33,89.12,88.16,90.99,94.72,94.4,95.71,96.99,96.6,96.65,93.84,94.96,95.94,96.08,94.81,86.68,93.09,90.06,92.85,91.54,91.81,90.63,89.08,88.98,90.2,89.85,88.92,88.08,86.88,86.42,87.05,85.2,85.11,86.86,86.08,89.4,89.75,91.25,89.2,89.68,91.49,90.62,91.64,91.13,92.04,90.3,93.36,95.2,95.01,94.11,95.87,96.75,95.66,96.76,97.83,97.04,97.18,97.83,96.94,97.98,97.9,97.55,97.64,98.22,100.0,99.21,99.11,98.7,96.21,96.1,94.48,94.05,91.76,94.04,91.99,90.32,90.56,91.48,90.6,91.17,90.4,89.25,89.13,88.55,89.42,89.02,89.02,89.55,88.23,87.0,89.37,90.02,90.39,91.0,90.16,88.51,89.07,90.68,89.76,88.29,88.6,88.28,88.54,88.17,87.6,86.99,86.99,87.85,85.95,84.49,85.78,86.1,85.99,85.98,84.53,84.2,84.62,83.74,81.97,80.24,78.09,77.18,76.2,76.1,74.1,73.4,76.5,77.65,78.0,76.2,77.08,78.06,75.65,75.25,73.67,75.13,77.32,79.3,79.5,79.5,79.71,79.87,77.02,76.39,70.0,72.1,70.21,72.99,75.5,76.2,76.02,77.08,78.25,76.22,77.58,78.74,77.57,76.75,77.15,77.04,77.68,80.02,78.86,77.05,75.43,75.24,72.29,74.06,71.74,69.86,70.85,73.8,72.67,78.16,80.72,84.37,83.31,87.35,87.12,85.13,84.99,85.3,87.75,86.27,84.57,84.44,84.63,85.09,85.1,81.84,82.98,84.32,85.78,85.14,86.9,88.48,86.28,85.41,85.94,85.22,86.35,82.34,81.65,82.44,84.29,83.84,84.26,83.0,82.36,83.3,84.24,82.88,82.41,83.45,83.33,81.64,79.29,77.88,74.72,77.47,77.84,77.32,74.36,77.97,77.29,75.47,73.19,71.6,70.33,71.4,73.75,71.76,71.88,69.8,70.11,70.8,70.06,68.5,65.92,65.86,65.88,64.65,63.42,64.67,62.01,63.15,59.73,60.24,66.44,64.62,63.0,65.09,69.23,69.17,69.3,67.01,68.61,70.67,67.68,65.66,67.21,65.45,63.62,66.82,68.77,69.0,70.99,68.61,71.54,71.69,67.23,69.19,68.0,67.42,65.1,64.95,66.95,69.91,71.12,74.65,71.59,71.16,73.14,73.71,73.82,74.37,75.66,77.5,75.02,75.39,75.45,72.42,74.3,73.17,76.44,73.48,70.85,72.48,69.89,70.68,70.79,73.37,73.88,74.46,77.61,78.03,77.42,74.04,78.52,78.13,79.38,79.67,80.39,80.515,83.69,83.85,82.71,82.33,81.44,80.61,80.44,78.83,78.21,78.77,79.38,81.39,80.21,79.64,80.8,81.36,79.15,80.59,79.8,81.79,82.5,83.55,81.94,82.03,80.65,79.96,80.24,80.61,81.99,86.6,84.17,83.32,80.99,81.22,82.73,81.25,80.95,82.33,82.99,84.9,84.76,81.58,80.0,80.65,82.8,83.44,83.78,83.12,82.03,83.83,82.84,82.94,84.55,84.59,84.84,84.51,83.92,82.87,81.53,82.15,82.05,80.38,78.47,80.76,79.74,79.0,81.04,79.37,80.0,82.03,87.23,90.97,91.29,90.87,90.07,90.65,91.51,90.19,89.81,90.82,91.17,90.83,90.73,90.77,90.7,90.73,89.98,91.27,89.76,88.31,89.27,90.25,94.78,95.18,94.36,92.05,91.61,89.88,88.85,89.54,91.66,90.16,91.56,94.61,92.25,90.22,88.15,89.46,94.28,95.55,96.27,96.32,96.37,97.55,96.88,97.28,96.75,95.88,95.43,96.27,94.46,94.96,94.26,93.97,94.19,93.98,93.48,91.85,92.51,91.65,90.66,91.32,89.91,90.88,94.87,93.6,92.9,93.35,92.64,92.07,91.19,94.03,94.51,96.1,92.75,95.0,95.79,94.79,96.39,96.64,91.6,97.31,105.71,104.81,104.88,103.52,103.92,104.03,105.59,109.1,107.0,106.69,103.03,104.09,104.27,104.2,103.75,102.67,102.7,102.82,102.49,101.6,101.15,102.63,104.25,103.63,104.61,104.32,103.23,103.56,105.51,104.84,105.95,105.34,105.5,106.23,104.72,104.49,103.63,104.1,104.16,102.19,101.35,102.19,101.14,99.68,101.0,99.25,96.6,99.1,101.23,100.91,100.33,100.91,101.06,99.91,100.41,98.76,99.19,96.52,96.78,99.5,98.25,99.18,98.5,98.62,100.4,98.81,93.77,96.5,94.49,93.93,95.54,97.16,96.54,95.75,96.49,94.34,94.48,94.94,93.35,93.5,95.18,98.19,97.18,97.5,97.37,99.4,97.97,98.23,98.17,98.09,97.82,97.25,95.66,95.11,94.93,93.77,93.0,94.46,93.8,94.42,93.57,93.97,92.53,92.24,91.53,91.04,89.03,90.39,92.36,93.01,94.82,94.12,96.32,94.87,93.28,92.23,92.38,94.13,93.12,92.37,92.28,91.29,90.47,88.99,90.64,90.04,89.12,89.1,90.22,87.63,88.33,91.26,90.05,90.03,88.86,87.57,88.37,86.79,88.1,87.34,87.61,88.04,88.19,88.18,89.47,90.34,91.0,91.82,90.53,88.07,88.13,89.62,91.46,90.37,91.98,91.31,92.25,91.56,95.0,93.39,93.02,94.78,95.66,94.62,96.01,95.32,88.82,92.62,92.39,88.82,89.89,89.81,91.52,90.63,89.15,88.93,87.75,87.23,84.78,83.35,83.81,83.91,84.16,84.8,85.01,84.35,82.62,82.92,84.0,85.0,85.92,86.72,87.75,87.87,87.11,87.85,89.32,91.5,92.43,92.77,93.08,93.58,93.66,93.77,95.0,95.99,96.9,97.45,96.73,95.52,96.98,96.65,96.5,95.79,96.53,97.1,96.77,96.08,97.5,97.13,97.25,97.54,95.69,95.78,97.07,97.7,96.32,96.45,96.21,98.66,99.25,100.79,101.37,103.8,105.15,107.35,105.51,103.83,104.53,104.2,103.85,101.18,101.29,101.76,101.38,102.3,102.41,102.09,101.57,99.75,99.56,101.0,103.32,102.69,100.69,100.43,98.89,100.28,100.49,101.37,100.46,100.09,100.34,98.85,99.95,102.0,103.76,106.27,107.24,109.06,108.5,109.11
83.978,83.325,82.665,83.455,83.915,84.445,84.05,84.135,84.365,86.64,85.585,85.94,85.275,86.15,85.87,84.52,82.745,83.75,83.08,83.75,83.8,83.43,84.495,84.85,86.895,88.44,88.38,88.105,88.45,88.3765,88.625,90.13,90.805,91.03,90.485,90.81,92.565,94.2045,93.8225,95.54,96.0,96.46,96.61,96.105,95.975,94.96,95.085,93.215,93.325,93.105,94.0,95.26,94.72,95.28,96.58,96.485,96.485,97.658,97.7,99.41,99.75,100.36,99.45,101.5,103.295,99.98,99.58,99.17,99.99,99.44,100.1,101.68,102.2015,102.84,103.58,103.27,105.18,105.5,103.3,100.0,101.23,99.2,98.77,98.25,99.711,106.5,105.45,104.56,102.3,103.73,105.5,105.49,103.98,102.88,103.36,102.95,104.36,105.17,105.15,104.97,105.63,106.71,106.36,106.0,106.66,106.73,107.91,109.56,110.75,109.7499,110.91,113.02,114.06,115.21,113.95,113.84,115.85,118.39,118.89,117.45,116.25,115.82,115.93,117.19,117.94,117.59,117.02,116.5,116.55,116.63,115.88,115.74,116.05,115.62,117.28,118.81,116.387,116.425,117.62,116.7,116.93,115.86,115.02,115.33,115.44,113.09,109.81,112.12,111.81,108.5086,107.63,107.9,109.0,108.49,107.88,107.23,106.42,106.91,107.35,107.45,107.5199,106.84,108.25,110.47,109.45,109.08,109.98,109.85,109.08,107.99,105.29,104.07,102.49,102.14,103.13,102.57,102.41,105.9,106.09,105.99,105.9,103.86,101.63,102.87,102.7,102.41,102.06,101.85,99.73,97.64,97.72,97.0,96.02,94.69,93.73,91.95,90.3,86.88,88.53,92.52,95.55,93.13,96.15,97.0,94.84,93.02,90.28,91.91,95.32,93.29,95.1,96.81,90.9935,97.47,99.18,101.58,102.25,99.07,99.35,97.435,98.36,97.38,98.26,98.8,100.29,103.04,101.74,100.32,96.63,88.43,87.58,91.33,93.6,93.0,92.05,89.5,91.119,87.26,89.76,88.42,88.1636,89.39,92.21,94.39,95.09,95.62,97.2735,95.64,95.2,95.21,94.33,93.547,92.99,90.78,86.6,85.73,87.65,88.03,85.35,86.66,88.09,89.5,90.535,89.7799,91.4,91.38,92.52,92.39,94.41,92.686,89.41,90.07,92.57,97.88,97.53,97.285,97.21,97.23,96.69,94.09,95.24,96.97,96.67,96.49,94.74,93.46,92.1,93.0,93.25,92.25,90.71,89.2,91.1099,90.95,90.52,90.0,89.2499,88.57,87.37,87.19,85.6584,88.03,87.97,91.37,89.9,91.935,91.4102,89.944,90.645,91.93,91.12,92.5,92.47,93.35,92.97,95.4,95.99,95.58,96.07,96.6,96.9,96.95,98.335,98.95,97.47,99.01,98.32,98.6,99.25,97.97,97.96,98.81,99.98,100.44,101.0,101.36,100.2,96.86,96.1,94.5,94.24,93.59,94.07,92.075,91.24,92.0358,91.61,90.72,91.8302,91.3897,89.81,89.94,89.36,89.52,89.12,90.35,90.47,89.13,90.64,89.96,91.48,90.71,91.05,90.43,89.86,90.3625,91.15,90.13,89.12,88.67,88.82,89.07,88.27,88.7,87.94,87.9,87.85,86.7,86.18,87.1,86.92,87.35,86.755,84.79,85.64,85.23,83.8,82.15,80.25,78.38,77.49,76.82,76.58,74.73,77.5589,79.01,78.72,78.31,77.63,77.77,78.95,78.34,78.7,76.48,77.43,80.26,80.5,80.88,80.16,80.54,79.875,78.44,77.43,73.28,72.11,71.04,76.1,79.34,79.16,77.32,77.71,80.16,77.44,78.18,79.35,78.24,77.41,77.15,77.8,80.17,81.18,79.19,77.33,76.66,75.925,73.72,74.21,72.1887,70.67,72.94,75.68,77.45,81.7,83.73,85.4,87.27,88.3,88.0,86.29,86.14,87.16,88.0,86.47,85.65,84.7,86.17,86.09,85.29,82.95,86.17,85.9,86.68,86.5,89.52,88.96,88.22,88.49,87.18,86.88,87.9,82.75,82.95,84.86,84.31,85.26,84.64,83.27,83.379,85.65,84.63,83.27,84.6396,84.13,84.055,82.48,80.84,78.4,77.88,80.4,80.15,79.43,77.03,78.66,77.62,75.98,73.87,71.85,71.58,73.76,73.98,71.98,72.33,71.09,71.59,71.0,70.54,68.5,69.01,66.43,66.06,65.1799,64.655,66.61,64.02,63.63,60.88,64.25,67.49,66.15,66.13,67.93,69.79,71.18,70.0,69.37,70.27,71.39,67.68,68.8,67.97,66.78,65.99,68.76,69.09,70.94,71.23,69.73,72.77,71.75,69.94,70.3,69.7,67.56,65.4658,67.12,69.67,71.52,75.53,74.84,72.5,72.86,75.89,75.45,74.37,75.27,77.45,77.7,76.32,77.25,76.54,74.91,74.7599,75.64,76.5,74.42,72.47,72.63,71.36,71.71,72.08,73.5,74.78,77.83,78.18,78.63,77.42,77.68,80.18,80.06,80.29,81.78,80.52,82.8601,85.43,84.75,83.24,83.06,82.23,82.0,82.7499,81.65,78.83,79.85,81.2088,81.85,80.97,81.41,82.48,82.15,80.19,81.31,81.87,83.08,83.38,83.94,82.26,82.48,81.305,80.58,80.8,81.42,85.63,86.87,85.44,84.34,83.0985,83.05,83.54,81.345,81.55,83.39,85.22,85.09,84.97,82.88,80.8,81.77,84.01,83.9598,85.73,84.03,83.11,83.86,83.07,83.89,85.96,85.07,84.93,84.9,84.31,83.15,82.86,83.46,82.2,80.56,80.45,81.95,80.71,81.89,81.13,80.36,82.42,84.3,90.77,92.0,91.39,90.87,91.15,91.42,91.97,90.8,90.66,92.1,91.935,91.84,91.85,91.4,90.85,91.509,91.33,91.69,89.9,88.64,89.5,95.2,95.16,95.93,94.87,93.53,92.13,90.82,92.39,91.46,91.87,91.85,93.79,95.0,92.3627,90.63,89.0,94.58,95.94,97.2,96.71,96.369,98.32,98.06,97.33,98.1,97.0699,96.76,95.93,96.27,94.95,95.16,96.18,95.5,95.02,94.67,94.19,93.1,92.89,94.09,91.23,92.223,91.79,92.88,96.0,93.6,94.1,94.67,93.7,92.54,92.8,94.99,96.0199,96.575,94.2767,97.0,96.2,97.7,96.805,96.84,93.38,103.07,107.47,105.47,106.81,105.3,104.97,105.25,106.99,109.37,109.13,107.47,105.05,104.59,104.4,104.34,103.86,103.33,103.0394,103.12,102.83,101.95,102.18,104.63,104.47,104.85,105.71,104.58,104.4,105.04,106.51,106.08,106.76,105.71,106.21,106.79,105.1,104.62,104.39,105.26,104.16,102.76,101.62,102.63,101.48,102.18,101.05,99.5,98.49,100.29,102.0299,101.38,101.48,101.47,101.48,100.02,100.85,99.2,99.19,97.5,98.23,99.55,100.42,99.71,99.305,100.38,100.54,99.36,96.02,96.5,95.35,94.99,97.388,97.25,96.97,96.55,96.592,95.33,95.44,95.25,93.99,95.64,97.56,100.155,98.5,97.81,98.31,100.53,98.81,98.48,99.43,98.61,98.88,97.72,96.13,95.97,95.42,94.1,94.25,94.46,95.43,96.49,93.7,93.97,92.71,92.44,92.75,91.24,91.06,92.14,92.44,95.77,94.9223,95.01,96.65,95.06,94.3,93.015,94.39,94.755,93.3,93.39,93.62,91.41,90.79,90.61,91.38,90.58,89.63,91.06,90.94,88.8,90.81,91.98,90.7,90.05,89.15,88.59,89.01,88.29,89.165,89.03,88.23,88.19,88.83,89.54,90.91,91.22,93.16,92.19,90.84,88.6,89.78,90.99,92.3,91.92,92.36,92.13,92.45,94.55,95.74,93.8,94.68,95.649,96.1,95.99,96.9,95.9,91.24,93.28,92.5,91.24,90.23,92.35,92.35,90.96,89.55,89.04,87.91,87.23,85.03,84.54,84.32,84.53,85.72,85.14,85.22,84.42,83.24,83.98,85.18,85.855,86.68,87.965,88.74,88.07,87.99,88.75,91.11,92.9486,93.29,93.38,93.64,94.28,94.44,94.65,96.8,97.5,97.51,98.37,97.45,97.18,97.71,96.98,97.07,96.34,97.02,97.83,97.12,96.89,97.625,97.4825,97.77,98.46,96.69,97.04,97.49,97.97,96.87,97.19,98.56,99.69,100.41,102.47,102.99,105.07,107.19,107.953,105.79,105.44,105.12,105.0,104.06,102.3298,102.16,102.21,102.0,102.6199,102.82,102.55,101.785,100.18,100.53,102.73,104.42,103.03,101.77,100.45,99.83,100.74,102.34,101.42,100.72,100.83,100.64,100.17,101.8,103.82,106.75,107.88,109.66,109.3,108.63,109.11
82.03,81.9052,81.1675,81.8525,82.525,82.74,82.995,81.485,81.815,84.7,84.35,84.46,84.07,84.625,84.115,82.5601,80.63,81.145,81.7702,82.325,81.59,80.75,81.25,83.385,83.845,86.571,86.535,86.78,87.245,86.3,87.445,89.005,89.2,89.075,88.97,88.515,89.625,91.44,92.245,93.555,94.31,95.165,95.025,94.6642,94.1005,93.56,92.66,90.83,90.885,91.45,93.0,93.59,93.015,93.035,94.69,94.23,95.45,95.95,96.01,97.055,97.525,98.26,98.02,99.26,98.95,97.45,97.54,97.99,97.56,97.57,98.72,99.52,100.43,100.84,101.8401,102.11,102.53,103.42,98.52,96.53,98.83,97.01,96.81,96.82,96.01,101.84,102.64,101.62,100.64,101.98,104.07,103.86,101.551,101.34,101.96,101.47,102.13,103.5348,103.44,103.75,104.4,105.0,105.25,104.95,105.27,105.56,105.82,108.04,109.0,108.41,108.14,111.22,110.53,113.02,111.26,111.74,112.52,116.15,116.95,112.24,113.32,114.07,114.71,115.85,116.02,115.54,115.11,115.42,115.13,115.19,113.76,113.39,114.31,112.6389,114.17,115.35,114.342,115.12,115.8,115.3,115.7,114.4003,113.0,113.19,113.36,109.37,107.16,108.08,107.51,105.6301,105.4,106.07,107.92,106.34,106.22,103.57,103.67,104.66,105.66,106.1,106.0201,105.61,106.6,108.5,108.07,108.1,108.37,107.08,107.46,103.97,103.05,100.75,100.82,99.33,100.5,101.03,100.12,101.75,104.52,104.21,103.96,100.57,100.45,99.55,100.14,100.21,100.1005,97.45,96.1501,94.27,95.57,94.36,93.57,90.8,90.88,88.61,83.58,83.5,81.07,85.19,90.26,90.77,94.27,91.98,92.4,90.2,86.95,87.55,91.76,91.03,90.74,92.89,89.0,93.56,95.11,99.27,97.99,97.11,97.35,94.47,96.2,95.73,96.09,96.78,98.34,101.29,99.25,96.72,93.86,85.19,83.66,86.87,90.8,89.75,89.78,87.51,86.77,85.54,86.13,85.1,84.945,83.78,86.11,88.9,92.45,93.68,94.54,92.51,93.33,93.45,91.89,90.75,90.36,86.02,82.76,82.72,84.07,86.01,83.2,84.05,83.67,86.45,86.54,87.52,89.68,88.58,89.7,90.15,91.12,87.762,86.76,87.4,89.53,94.65,93.54,95.16,95.57,95.78,93.84,92.15,93.47,95.25,95.65,94.5,86.58,90.07,89.25,91.26,91.29,89.61,89.29,87.08,88.6,88.55,89.37,88.23,87.64,86.15,85.88,85.62,84.1,85.06,86.4,86.0,88.36,89.43,89.0,88.64,88.79,90.25,90.14,90.78,90.83,91.06,89.23,93.3,94.12,93.8,94.11,95.25,94.2,95.34,96.43,97.17,96.39,97.18,96.36,96.3,97.84,95.91,96.56,97.64,97.79,98.48,97.61,98.55,94.53,94.49,92.42,92.555,91.465,91.71,90.98,90.68,89.25,89.9,90.235,89.76,90.68,90.07,88.55,88.51,88.0,88.26,88.18,88.21,88.97,87.28,86.818,88.63,89.09,89.66,90.23,89.12,88.5,89.026,88.42,88.54,88.24,87.45,87.66,88.1,87.3,87.08,86.15,86.34,84.84,85.585,84.05,83.83,84.0,85.18,84.45,83.47,84.1,83.05,82.34,80.26,77.92,76.94,75.76,75.47,74.62,72.865,73.4,76.5,76.8,77.0,75.45,76.35,75.96,75.3,73.03,73.62,74.18,76.5,78.34,78.8,78.89,79.28,76.07,76.61,74.12,68.15,68.29,68.4,72.86,75.41,74.57,75.18,74.87,76.79,75.95,75.45,76.67,76.13,75.84,76.04,76.5645,77.46,79.12,75.93,75.87,74.69,72.87,71.48,72.19,69.1,69.14,70.67,73.0,71.59,78.0,80.55,82.18,83.07,86.1,84.93,84.75,84.76,84.93,86.56,84.11,83.95,83.41,84.37,84.32,83.25,80.05,82.35,84.13,84.37,84.71,86.28,85.7501,85.45,84.23,84.4905,84.715,83.19,80.93,80.504,82.0,81.9265,82.95,81.744,81.98,82.06,83.16,83.2,81.8991,82.2,83.02,80.41,80.25,78.5,74.55,73.93,76.875,77.4,74.76,73.72,76.98,75.72,71.93,71.41,69.3025,69.58,70.79,72.65,70.205,70.55,69.74,70.0,68.832,68.57,66.7,65.19,64.77,62.915,61.3498,62.59,63.61,61.01,59.48,57.15,59.41,64.67,61.51,62.29,64.49,66.6452,69.02,67.69,66.0,66.321,68.14,65.62,64.75,64.34,63.91,63.06,65.98,66.25,67.6,69.34,68.06,70.62,67.65,66.75,67.17,65.74,64.72,62.53,64.14,66.18,68.74,70.22,70.48,69.81,70.305,72.99,73.29,71.9,72.685,75.18,74.63,74.59,75.38,73.84,72.3205,73.52,73.14,73.59,72.37,70.4101,70.11,69.66,69.76,70.39,72.44,73.7,73.54,76.32,77.0,75.07,73.57,77.7,76.64,78.71,79.495,79.04,79.975,83.04,81.6,81.03,80.68,80.05,78.81,80.15,78.075,77.035,78.7148,78.22,79.55,78.6,79.64,80.39,79.88,77.66,79.54,79.73,80.65,82.29,82.21,80.77,81.08,80.0,79.2,79.11,79.97,81.91,85.14,84.0,81.33,80.51,81.07,81.5,79.33,80.34,81.81,82.83,83.43,83.97,80.81,78.11,79.85,82.41,82.64,83.37,81.67,81.86,81.12,81.5738,82.6,84.14,82.62,83.88,83.64,82.74,81.86,80.92,81.2,80.19,78.19,78.04,79.645,79.25,78.86,78.26,78.52,79.67,81.6,86.75,90.47,89.9,89.2,89.08,90.0,90.54,88.84,89.3,90.29,90.66,90.27,90.71,90.56,90.0,89.92,89.61,89.64,88.02,87.44,88.685,90.06,94.04,94.16,92.62,91.35,89.53,88.17,88.49,89.27,90.02,90.0401,91.1,92.43,89.4,89.01,87.175,88.57,93.14,94.69,95.06,94.5052,96.09,96.39,96.05,97.13,95.72,95.15,93.99,93.91,93.0514,92.94,94.0,93.77,93.64,92.28,92.57,90.38,91.3,90.68,90.18,89.9,88.94,90.59,91.51,92.21,92.5701,92.515,92.06,90.12,90.09,93.05,94.05,92.04,92.38,94.86,93.42,94.64,95.19,93.27,90.0,97.09,103.85,103.39,104.32,102.56,102.69,102.3639,105.35,105.1942,105.8,104.08,102.54,102.79,103.13,102.71,102.33,101.87,101.62,102.32,101.35,100.54,100.73,101.83,102.97,103.42,103.7106,102.82,102.87,102.73,104.84,104.265,105.45,104.73,104.455,105.3,103.34,102.91,103.24,103.9,102.775,99.57,100.1,100.05,98.94,99.21,99.43,95.27,95.28,98.45,100.57,100.14,99.02,100.35,99.84,98.43,99.43,97.46,96.55,95.65,96.3,95.29,98.01,98.235,98.1189,97.8,99.4,94.49,93.06,94.01,93.515,92.91,94.68,95.74,95.65,95.2,94.26,93.93,93.915,94.36,93.03,93.45,94.57,97.17,96.66,95.98,96.01,97.22,97.5597,97.04,98.055,96.91,97.18,95.33,95.2,94.3,92.925,93.19,92.8856,93.32,93.4724,94.21,91.16,92.44,91.75,91.05,91.09,88.2,88.87,90.17,90.6,92.57,93.98,93.8,94.12,93.52,92.83,91.665,92.07,92.79,91.97,92.31,90.44,90.12,89.43,88.36,89.73,88.9428,88.52,88.77,87.41,87.62,88.04,89.51,89.51,87.84,86.57,87.07,87.96,85.88,86.635,86.63,87.21,86.82,87.68,87.4933,89.3,89.25,90.52,89.96,88.405,87.04,88.0,88.92,90.41,90.37,91.59,91.31,91.25,91.56,93.57,92.38,92.9,94.44,94.65,94.3,95.03,94.77,88.56,89.85,87.76,88.56,88.85,89.71,90.27,88.89,87.935,87.73,86.25,84.84,83.37,83.29,83.41,83.85,83.96,84.33,84.46,82.25,81.99,82.32,83.61,84.59,85.26,86.46,87.401,86.08,86.48,87.43,89.07,91.17,91.86,92.38,92.71,92.82,93.14,93.45,94.74,95.47,96.28,96.81,96.05,94.87,96.48,95.9775,96.15,95.46,96.11,96.7,96.04,95.72,96.3,96.74,96.56,96.57,95.36,95.42,96.67,96.23,95.67,95.74,95.84,98.28,99.06,96.71,101.37,103.31,105.06,105.55,103.8,103.56,103.21,103.74,102.36,100.08,100.81,101.11,100.7,101.335,101.54,101.38,99.22,99.11,99.25,101.0,101.66,100.99,100.52,98.491,98.51,99.75,100.395,99.44,99.71,99.55,98.47,98.68,99.68,101.21,103.24,105.88,107.0,107.721,107.86,107.88
82.51,82.28,82.01,83.425,83.39,83.5,83.405,81.73,84.3,85.18,85.05,84.48,84.615,85.86,84.585,82.765,81.05,83.61,82.325,83.065,82.62,80.87,84.29,83.745,86.625,88.25,87.1,87.365,87.555,87.735,88.48,89.96,89.43,90.015,89.0,90.2,92.0,93.22,93.735,94.71,94.645,95.78,95.245,95.53,94.96,94.525,92.8,92.565,91.455,92.985,93.615,94.58,93.765,95.165,95.82,94.8,95.785,96.06,96.73,98.58,98.085,98.98,99.11,100.65,99.77,97.93,98.71,98.95,98.11,98.63,99.96,101.11,101.01,102.45,103.53,102.34,105.08,103.48,99.04,98.06,99.62,98.0,97.12,97.06,99.25,103.63,104.79,101.73,102.28,103.64,105.17,103.9,102.74,102.5,102.3,101.89,104.16,103.68,103.97,104.73,105.19,106.67,105.8,105.38,106.66,106.37,107.9,109.32,109.51,108.69,110.7,111.63,114.02,114.03,112.39,113.54,115.8,117.98,117.41,113.02,116.02,115.42,115.84,116.86,116.55,116.23,116.75,115.73,115.98,116.56,114.96,113.65,115.69,113.44,117.1,115.55,116.04,116.15,116.55,115.95,116.2,114.82,113.39,114.24,113.63,109.44,108.04,111.81,108.63,106.64,106.06,107.78,108.3,106.69,106.35,103.93,106.09,105.43,107.03,107.28,107.19,106.27,107.94,109.4,108.61,108.39,109.88,107.71,107.74,104.61,105.18,101.41,101.31,102.01,103.06,101.32,101.91,105.22,105.19,104.98,104.37,101.74,100.84,102.14,100.36,101.88,101.87,99.02,96.85,97.06,96.57,95.09,93.61,94.56,91.96,89.83,83.76,83.84,88.17,91.27,91.22,92.76,96.03,92.07,93.4,92.1,88.43,91.5,93.13,92.22,95.05,93.32,90.28,96.1,98.97,99.55,98.5,98.75,97.56,95.85,98.16,96.35,97.67,98.33,99.44,101.74,99.56,96.74,94.07,86.72,87.24,90.3,91.8,93.0,90.75,88.19,89.15,86.79,86.86,86.37,85.34,85.47,91.14,92.45,95.02,95.06,96.41,94.05,93.82,94.33,92.7,92.07,92.24,86.68,84.21,83.68,86.88,87.46,84.51,85.06,87.74,86.53,90.31,89.33,90.54,90.36,90.79,92.33,93.0,88.1,88.91,89.03,92.52,96.31,95.19,96.19,95.79,95.95,95.26,93.2,94.8,96.92,96.49,95.31,93.8,91.08,91.93,91.61,93.03,90.13,89.72,89.06,90.37,90.49,89.59,88.57,87.72,86.19,86.55,85.71,85.39,87.9,86.8,90.66,89.53,90.68,89.0,88.84,89.96,91.36,90.56,92.14,91.69,91.22,92.71,94.87,94.27,94.04,95.71,96.59,94.69,96.46,97.96,98.0,97.23,97.74,96.59,97.7,98.27,96.72,97.36,98.46,99.74,98.95,98.9,99.39,94.54,95.08,93.5,93.5,91.61,93.41,91.6,90.73,90.47,91.8,90.26,90.46,91.49,90.26,89.15,89.0,89.15,88.69,88.76,89.77,89.01,87.38,89.68,89.11,89.09,90.41,90.65,89.53,89.22,90.08,89.02,88.81,88.27,88.08,88.79,88.34,87.65,88.06,86.25,87.55,85.77,85.67,85.09,86.72,84.49,85.3,84.54,84.21,85.23,83.25,82.4,80.5,77.93,77.33,76.09,76.32,75.16,73.19,76.85,77.74,78.54,77.19,76.44,76.74,76.09,77.68,73.76,76.27,77.3,79.93,79.68,79.93,80.01,80.41,77.07,76.73,74.86,69.26,68.36,70.99,75.79,77.31,78.31,76.02,77.71,77.45,76.89,77.66,76.93,78.06,77.15,76.43,77.25,79.94,79.66,76.26,76.52,75.22,73.04,73.26,72.79,69.43,70.13,72.8,73.59,77.06,80.65,82.84,83.77,87.04,87.3,86.03,85.28,85.78,87.14,87.5,84.81,84.87,83.78,85.8,85.43,83.39,82.7,84.79,85.52,85.85,86.07,88.45,86.47,86.47,85.27,85.37,86.58,83.32,81.69,82.25,84.79,82.98,85.15,82.65,82.63,82.57,85.14,83.53,82.02,83.43,84.05,80.86,80.99,80.49,76.19,77.11,78.38,78.18,74.89,76.86,77.3,75.8,73.3,71.43,70.25,69.81,73.69,73.42,70.49,71.09,70.61,70.79,69.68,70.13,67.32,65.46,65.52,63.67,62.92,64.17,65.26,62.97,60.98,60.24,63.75,66.02,61.59,66.03,66.07,68.63,71.02,69.09,67.16,70.19,68.44,67.06,68.43,65.59,65.79,65.56,67.7,67.89,70.82,69.46,69.71,72.21,68.02,69.52,68.5,67.5,64.74,65.02,67.0,69.25,71.41,75.47,70.56,72.26,72.27,75.18,74.78,73.61,75.04,76.5,75.63,75.96,75.9,74.34,74.3,74.53,75.45,73.66,72.58,72.04,70.31,70.54,71.22,71.45,73.47,74.01,77.51,77.78,77.81,75.71,77.44,79.13,79.37,79.16,80.92,79.76,82.78,84.51,81.89,82.62,82.78,80.63,79.34,81.26,78.68,78.64,79.73,80.32,80.5,78.65,80.69,81.57,80.41,80.08,80.92,81.27,82.49,83.08,82.3,81.57,81.36,80.75,80.49,79.71,81.27,85.42,85.36,84.58,81.56,81.39,82.98,82.44,80.18,80.89,83.19,84.91,83.6,84.5,81.06,78.59,81.75,83.44,83.42,84.78,82.76,82.76,81.61,82.54,82.9,85.14,83.84,84.63,84.1,83.25,82.04,82.11,81.49,80.98,78.75,80.45,79.78,79.9,81.7,78.7,79.89,82.37,84.24,90.16,90.66,90.38,89.42,90.28,91.2,90.55,90.26,90.22,91.73,91.76,91.17,91.21,90.73,90.25,90.18,91.14,90.07,88.49,88.55,88.91,94.83,94.32,95.43,92.65,92.98,90.4,88.45,90.95,90.97,90.05,90.4,93.52,92.61,89.75,89.26,88.56,93.96,95.05,96.71,96.11,95.14,97.38,97.14,96.44,97.29,96.05,96.3,95.5,94.48,93.78,93.13,95.06,94.91,93.88,93.62,92.67,92.14,91.74,90.8,90.42,91.16,90.94,92.08,91.8,93.43,93.36,93.43,92.63,91.41,92.68,94.57,95.22,92.34,93.15,95.67,95.27,97.0,95.98,93.47,92.44,102.52,104.75,103.74,104.46,103.97,103.53,104.93,106.45,105.83,108.01,104.21,103.92,104.0,103.48,103.16,102.55,103.13,102.03,102.54,101.65,101.28,101.1,103.54,103.62,104.18,105.21,103.02,103.4,104.92,105.37,105.39,105.48,105.4,105.19,105.47,103.46,103.68,103.9,104.39,102.9,101.2,101.58,101.0,99.71,100.94,99.7,97.19,98.14,99.81,101.44,100.35,101.23,100.75,100.17,99.03,99.47,97.53,97.57,96.3,97.91,96.99,100.05,98.47,98.57,100.07,99.53,94.83,95.7,94.79,94.95,94.59,97.06,95.83,96.43,96.22,94.53,94.65,94.81,94.86,93.38,95.29,97.0,97.17,97.55,96.96,98.25,97.58,98.05,97.36,98.57,97.88,97.49,95.64,95.74,94.83,93.29,93.3,93.58,93.74,95.27,94.31,93.0,92.5,92.03,91.87,91.76,88.6,90.88,91.69,91.64,94.54,94.28,94.7,94.73,93.83,92.95,91.69,93.81,93.11,92.53,92.67,91.02,91.22,89.62,90.31,90.4,89.68,89.2,90.83,88.15,88.11,90.08,89.88,90.56,88.93,87.04,88.52,88.07,87.85,87.12,87.69,87.79,87.39,88.0,89.02,90.0,90.52,92.37,90.3,88.63,88.44,89.62,90.63,90.57,91.81,91.87,91.9,91.7,94.31,93.66,92.91,93.31,94.87,94.75,95.98,95.42,95.14,90.45,92.32,88.9,90.45,89.67,91.15,90.35,89.12,88.53,87.99,87.02,84.98,83.38,84.09,83.69,84.24,85.11,84.62,84.51,83.4,83.15,83.67,84.99,85.65,85.87,87.85,88.6,86.78,87.93,88.47,91.1,91.78,93.22,93.05,93.13,94.18,93.89,94.55,96.29,96.87,97.32,96.82,96.74,97.18,96.5,96.33,96.55,96.19,96.5,96.78,96.93,96.65,96.62,97.21,97.45,96.66,95.76,96.84,96.97,96.48,96.175,96.92,98.47,99.53,99.87,102.29,102.95,104.5,106.96,106.09,104.33,104.78,104.58,104.46,102.47,101.36,101.43,101.64,101.44,101.66,101.59,101.66,99.82,99.84,100.5,102.32,102.91,101.05,100.9,98.86,99.72,100.39,101.21,100.28,99.94,99.64,98.55,99.91,101.43,103.54,106.35,107.11,109.41,108.36,108.45,107.91
2944140.0,2693750.0,3649192.0,3287000.0,2857880.0,3539336.0,2949798.0,2672664.0,3221976.0,4088860.0,3342482.0,3325724.0,3195084.0,3588544.0,4482806.0,5653078.0,3809822.0,3292674.0,3280418.0,2262924.0,2639566.0,4528920.0,6577434.0,4293062.0,5142174.0,4184512.0,3538252.0,3299190.0,2588172.0,3432632.0,2340546.0,3654694.0,3834990.0,4511960.0,5411032.0,7074362.0,7465912.0,7214394.0,3779670.0,5077904.0,5608428.0,4266520.0,3900792.0,3450578.0,3917102.0,2759232.0,4103660.0,4087848.0,3764290.0,3178352.0,2722320.0,3165938.0,3165092.0,4022466.0,5331708.0,3461646.0,3819058.0,4117322.0,3535222.0,4051242.0,4142808.0,3422983.0,2858010.0,5219482.0,4030144.0,3146581.0,3293647.0,3826712.0,4706319.0,4581572.0,3427874.0,4695789.0,3650994.0,3253213.0,2404788.0,3332773.0,3445732.0,3715985.0,7169791.0,5112184.0,4089133.0,6297708.0,4240561.0,3712934.0,4766434.0,8515778.0,5705837.0,3265809.0,3709705.0,3351934.0,3426618.0,2415023.0,2608089.0,2846309.0,1832776.0,1937664.0,1777722.0,2458417.0,2535088.0,2072530.0,2725834.0,2565461.0,2291034.0,1712411.0,1975029.0,1695842.0,2212057.0,2151401.0,2366345.0,2174742.0,2684063.0,3800762.0,3130101.0,4075258.0,5247698.0,2912510.0,3866483.0,5556996.0,3329234.0,4577977.0,3456736.0,2355128.0,2801758.0,2344837.0,2793819.0,2649906.0,1677892.0,1574664.0,2511389.0,1938840.0,2212687.0,2482078.0,2956255.0,3367679.0,3182834.0,2288182.0,2605225.0,1594977.0,2600588.0,3621590.0,2864399.0,1981201.0,2993483.0,2502920.0,1779381.0,4162781.0,3966436.0,3007100.0,4850181.0,5007977.0,2977507.0,2354184.0,2760744.0,3265911.0,2337379.0,3490654.0,4557934.0,3276046.0,3147466.0,2185882.0,2138759.0,2075667.0,1938369.0,3285701.0,1996698.0,1757040.0,1802696.0,2755508.0,1479234.0,3937570.0,3236407.0,5549802.0,3636027.0,3717147.0,4596770.0,3699845.0,3056044.0,4117680.0,3689602.0,3003894.0,6346213.0,4437043.0,5577332.0,4585582.0,3591610.0,3327471.0,4301482.0,6424066.0,5857099.0,5382663.0,4433900.0,5115314.0,5518926.0,7724576.0,9684979.0,9915862.0,9448894.0,12229591.0,11110299.0,10111531.0,8665807.0,4420632.0,6299027.0,7673474.0,9219270.0,5418293.0,7435920.0,6123604.0,5926201.0,3746187.0,5495238.0,7006687.0,8207985.0,11401915.0,8202186.0,7009155.0,5947797.0,4276835.0,3433698.0,5859272.0,3992708.0,4349405.0,3917678.0,3830803.0,4624090.0,6378712.0,4110890.0,5591953.0,5346334.0,9472136.0,10063494.0,10159637.0,6243943.0,5112581.0,7572506.0,8672236.0,8197573.0,8821704.0,5808149.0,6611854.0,6866988.0,8312974.0,10269454.0,8888550.0,7853411.0,6746568.0,4251671.0,3015309.0,2210553.0,3396978.0,3379372.0,3329161.0,3463489.0,6173633.0,8150001.0,5950338.0,5840270.0,4036602.0,4810322.0,5446131.0,6698177.0,4941725.0,5483464.0,5969472.0,4911939.0,4471638.0,4433693.0,3431089.0,5282954.0,5773627.0,5188708.0,7469935.0,5615475.0,8906563.0,9869106.0,5596560.0,5297775.0,4249896.0,4308296.0,6332334.0,3944487.0,4158472.0,4234284.0,4533965.0,18682441.0,7937824.0,5501326.0,4214973.0,5787809.0,5427108.0,3837551.0,5347819.0,4381410.0,3924790.0,2688091.0,4063583.0,3443595.0,4862440.0,3973714.0,3051652.0,4415592.0,4953790.0,3798569.0,5386755.0,3558725.0,5980026.0,3200732.0,2681222.0,3664807.0,4857083.0,2539128.0,3478914.0,3576030.0,3814311.0,4596338.0,4770004.0,5233202.0,3274411.0,3408669.0,2570412.0,3111389.0,3204352.0,5859464.0,4054436.0,3201209.0,3130708.0,3238541.0,2897780.0,2708426.0,3139607.0,2980509.0,3736627.0,3902568.0,3462023.0,3584709.0,7312741.0,11761970.0,5163486.0,5197832.0,4922339.0,3952431.0,3468510.0,3548294.0,3582206.0,3267370.0,3017958.0,3588533.0,3734401.0,3957981.0,3055520.0,3920667.0,3016885.0,3790844.0,3948896.0,2886599.0,3581554.0,2158389.0,3774189.0,4429916.0,2755687.0,2660975.0,2914822.0,2300930.0,2464075.0,2795348.0,2286365.0,4998133.0,3602476.0,4298559.0,2845624.0,3613321.0,3785853.0,3797792.0,11406641.0,4022274.0,3941448.0,4644490.0,2699914.0,3513261.0,5118308.0,4681214.0,3783964.0,2903774.0,3830171.0,3276097.0,3917347.0,4019255.0,6069336.0,7054034.0,6823693.0,7205219.0,6335408.0,5850150.0,5621305.0,7887190.0,6360574.0,4539802.0,4190210.0,5136474.0,3981908.0,4896806.0,6709536.0,8476104.0,6935217.0,5976015.0,8330618.0,5889702.0,3908053.0,3747234.0,3536669.0,6122143.0,6793498.0,7769068.0,9518764.0,6720591.0,6763714.0,7160693.0,6962188.0,6863989.0,6376917.0,5356520.0,6228140.0,4700715.0,5137591.0,6445384.0,4814677.0,4571796.0,3704992.0,3650540.0,3996039.0,5499094.0,6047594.0,3258693.0,3433933.0,3891372.0,4443613.0,3894307.0,4581857.0,3773586.0,4809186.0,5684140.0,6032611.0,7429268.0,6777047.0,6959165.0,6795014.0,5802175.0,4804228.0,5605930.0,3325357.0,3610766.0,4128452.0,4256501.0,3553364.0,3007351.0,2901135.0,2674924.0,3496534.0,5147717.0,3830015.0,2984088.0,3161572.0,3597501.0,5513885.0,3908732.0,4033751.0,5272285.0,3849949.0,3909672.0,3545517.0,3436682.0,3111772.0,3052651.0,3290260.0,3200890.0,2797857.0,2980718.0,2718656.0,4421124.0,3037031.0,1446573.0,3833480.0,2584237.0,4543302.0,4674971.0,4754216.0,6354450.0,5336845.0,5377123.0,5033285.0,4961842.0,5854629.0,5700995.0,4961252.0,6109966.0,6633829.0,5078834.0,5234648.0,5352682.0,1792921.0,3998011.0,3168438.0,3354675.0,3117340.0,5136714.0,3665194.0,6626717.0,5297934.0,4990105.0,5356702.0,7124494.0,7745432.0,7134868.0,5870594.0,5476957.0,10621636.0,7404077.0,6827131.0,4969205.0,6788957.0,7071277.0,6737656.0,6883204.0,4489147.0,5463616.0,5381169.0,5174334.0,5514373.0,6274494.0,6382825.0,4302085.0,5413000.0,5476817.0,3747915.0,6288161.0,3668080.0,3575080.0,4684646.0,4418684.0,4151505.0,5356663.0,10600825.0,7950263.0,7542893.0,5243390.0,6644356.0,7930767.0,8446319.0,6598941.0,4693466.0,4558447.0,4281958.0,3188435.0,3910475.0,4881804.0,4674449.0,7455577.0,2899578.0,2844325.0,3840738.0,3621436.0,2628650.0,3242950.0,4136216.0,5664728.0,5143426.0,3452993.0,3467458.0,4159188.0,3017643.0,3215857.0,3457517.0,5527980.0,4629055.0,2666691.0,4868804.0,3586372.0,3829927.0,4066163.0,3336607.0,3157284.0,2828067.0,3654744.0,3795123.0,3265960.0,4570581.0,4300747.0,3808622.0,3757590.0,5206822.0,5070763.0,3002665.0,4089674.0,3191993.0,2278200.0,3219066.0,2992771.0,3952342.0,2492768.0,3798518.0,3322765.0,3215278.0,3312882.0,2895368.0,2367255.0,2100605.0,3009226.0,3337060.0,2069761.0,2134529.0,2037527.0,4369451.0,3796762.0,3588127.0,2983566.0,2283115.0,2335718.0,2150814.0,3139796.0,3280766.0,3214989.0,3539802.0,2415622.0,2413209.0,4942171.0,4272144.0,3105723.0,2870274.0,3364026.0,2675525.0,2704752.0,2207321.0,2145773.0,1980107.0,1689166.0,2860734.0,2811984.0,2018117.0,2473836.0,1864795.0,2173752.0,2156700.0,1859092.0,2620092.0,4280286.0,2547963.0,3450208.0,2537360.0,2886943.0,3591753.0,3039628.0,3036515.0,4243041.0,8928252.0,4506052.0,3064217.0,2664129.0,3445361.0,1912569.0,2794091.0,2463394.0,3160436.0,4122216.0,2338553.0,2276099.0,2986408.0,2329222.0,1929886.0,1641064.0,2226139.0,1618365.0,2709139.0,2420698.0,1938356.0,7421615.0,4271513.0,3697251.0,3013286.0,2498803.0,3985874.0,3673725.0,3946570.0,4559711.0,3739977.0,3050139.0,3189143.0,3047683.0,3679821.0,2131450.0,2939020.0,4533827.0,4486465.0,4006452.0,2318565.0,1724720.0,3284513.0,1790213.0,1742934.0,1963552.0,2099930.0,2415752.0,2252434.0,2526786.0,2100090.0,2735372.0,3163808.0,2472183.0,2729648.0,2568962.0,1429135.0,3286408.0,3581326.0,3269761.0,2406920.0,2496014.0,3302628.0,4157869.0,6775080.0,2988167.0,2382312.0,4685943.0,2983016.0,2340304.0,2467001.0,8288424.0,4103429.0,5877707.0,2755401.0,4642425.0,3867772.0,2680677.0,1518348.0,3031187.0,4010441.0,10120960.0,6505337.0,4078342.0,5883879.0,3539660.0,3777737.0,6189119.0,4049614.0,5758468.0,3912633.0,4010252.0,4646788.0,8906260.0,2238892.0,2383138.0,2365152.0,2722379.0,1706423.0,1410823.0,1896105.0,1517650.0,2178158.0,4151205.0,2417921.0,3084811.0,2418326.0,3382593.0,2913760.0,3542882.0,4671749.0,2580629.0,3881138.0,2527915.0,2425809.0,2488136.0,3045469.0,2680540.0,2798101.0,2772648.0,2343629.0,2975581.0,2447528.0,3028543.0,5064381.0,3520889.0,1802425.0,5157970.0,3445423.0,2927008.0,3088973.0,1945114.0,3862460.0,2093995.0,3154050.0,3023215.0,2737205.0,2596450.0,3212212.0,3590310.0,5156920.0,6369265.0,3775915.0,3049687.0,2075353.0,3106089.0,3381790.0,4829553.0,4991367.0,3796460.0,4695357.0,5091792.0,4184439.0,3182442.0,6978641.0,2208436.0,2840747.0,2040694.0,2369615.0,2858354.0,2757071.0,3341044.0,3480896.0,7514657.0,4000964.0,2281963.0,2232138.0,3829133.0,1977903.0,2866685.0,2902612.0,1907926.0,2295069.0,3235143.0,2288772.0,2005741.0,3109057.0,2737304.0,2409298.0,2182240.0,2273945.0,2131956.0,3876283.0,1625309.0,2680096.0,3351349.0,3512229.0,5457939.0,4696413.0,3718298.0,3591133.0,5239157.0,2580772.0,3415668.0,6294017.0,2682657.0,2406905.0,3795844.0,3711885.0,2004620.0,2255369.0,2898116.0,2768745.0,2001462.0,3163050.0,3938846.0,2829569.0,2680187.0,2372985.0,3219502.0,4531393.0,3498839.0,4507916.0,3812460.0,2573078.0,4055210.0,4362030.0,4767003.0,2495363.0,3772091.0,4613500.0,3356558.0,3733870.0,2548073.0,3909206.0,4508240.0,4078999.0,4164149.0,2399997.0,2720176.0,3290586.0,3810270.0,2064842.0,2516977.0,3166655.0,2472927.0,1773422.0,4129138.0,2198601.0,3937546.0,4078175.0,2665721.0,2588939.0,2811156.0,2862098.0,2615744.0,2977076.0,2996674.0,3792200.0,5358737.0,6297439.0,3792200.0,3886628.0,3829713.0,3289080.0,3377372.0,2874157.0,2482221.0,4457936.0,3478032.0,3438130.0,2751653.0,2515486.0,1946655.0,2322742.0,2007762.0,2211256.0,2377458.0,2322118.0,2245659.0,4803859.0,2358644.0,2657753.0,2600331.0,2788606.0,2687176.0,2865342.0,2922918.0,3158258.0,3428369.0,4057790.0,2388436.0,2074609.0,3774250.0,2678660.0,2290433.0,3143428.0,2951146.0,2123021.0,2983045.0,2010864.0,2115207.0,2134464.0,1507994.0,2097643.0,1587332.0,1880931.0,2201233.0,2156493.0,2173722.0,1953638.0,2075186.0,1695319.0,2040447.0,1875107.0,2194495.0,2395754.0,2190394.0,1691640.0,1980801.0,2911191.0,3505439.0,3272527.0,3953417.0,2970916.0,4080161.0,4709626.0,4021318.0,3426189.0,3045094.0,3383230.0,1822941.0,2428409.0,3357700.0,2027498.0,2596845.0,1659713.0,4058416.0,2654829.0,913550.0,2947797.0,2037194.0,2721558.0,4183723.0,3446054.0,2423456.0,2045989.0,2768449.0,1687645.0,1512439.0,1946819.0,2128157.0,1426884.0,2425027.0,4632953.0,2670341.0,2374437.0,2651764.0,3330281.0,2028669.0,2071502.0,1801972.0,1250552.0,1778184.0
-0.77,-0.59,-0.38,0.89,0.38,-0.2,-0.33,-1.97,2.27,0.45,0.0,-1.0,0.03,0.76,-0.31,-1.26,-1.53,1.92,-0.63,0.52,0.29,-1.44,2.96,-0.3,2.78,0.86,-1.28,0.21,-0.32,0.94,0.62,0.9,-0.09,0.5,-1.23,0.98,0.58,1.41,0.53,0.85,0.12,0.55,-0.77,0.17,-0.8,-0.43,-2.12,0.77,-1.67,1.5,0.31,0.88,-0.91,1.36,-0.14,-1.33,0.19,-0.22,0.59,1.34,-1.15,-0.4,0.84,1.32,-2.9,-1.79,0.93,0.01,-0.52,0.96,0.44,1.48,-0.47,1.61,0.55,-0.93,2.55,-2.02,-4.21,-1.88,0.74,-1.07,-1.21,-0.24,3.21,0.83,0.18,-2.3,0.28,1.07,0.59,-1.49,-1.23,-0.07,-0.2,-0.33,1.46,-0.61,0.08,0.29,0.33,1.25,-0.47,-0.57,1.21,-0.11,1.55,1.18,-0.58,-0.7,2.45,0.17,2.25,-1.18,-1.56,0.96,2.66,0.93,-1.11,-4.16,2.7,-0.26,0.61,0.78,-0.89,-0.63,0.48,-0.67,0.61,0.46,0.08,-2.09,1.04,-1.47,2.48,-1.93,0.68,0.29,-0.2,-0.75,-0.28,-0.76,-1.43,0.97,-1.2,-3.4,-0.61,3.07,-3.18,-0.39,-1.57,1.71,-0.42,-1.2,-1.31,-3.29,2.12,-1.22,0.93,0.19,-0.31,-0.32,1.01,0.54,-0.82,0.07,1.08,-1.86,-1.11,-3.15,0.83,-2.66,-0.32,1.08,2.13,-1.18,1.11,2.89,-0.46,-0.84,-0.87,-2.08,-0.71,1.2,-2.28,1.51,1.07,-2.83,-2.36,1.3,-1.15,-1.75,-1.41,1.25,-1.68,-1.24,-5.49,-1.56,6.14,6.08,-2.98,1.13,1.68,-4.69,-0.84,-0.85,-1.85,2.69,-1.11,-0.35,3.1,-1.73,0.61,0.6,3.78,-0.17,-2.51,0.25,-1.12,-0.65,1.84,-0.66,1.35,-0.42,0.99,-0.75,-1.62,-3.54,-2.55,-0.44,1.72,2.92,0.09,2.21,-1.16,-0.89,2.15,0.41,-0.33,1.06,-1.75,1.61,3.53,-1.38,1.39,0.85,0.67,-1.56,-1.08,-0.22,-0.8,0.1,1.23,-3.28,-1.63,-1.5,2.16,0.44,-0.6,0.09,3.67,-2.51,3.45,0.24,-0.05,-1.02,0.72,1.1,1.06,-4.23,-0.21,0.87,1.53,1.59,0.79,0.48,-1.2,-0.65,-1.39,-0.64,-0.16,0.98,0.41,0.5,7.12,-2.01,1.87,-1.24,1.49,-1.68,-0.91,-0.02,1.39,0.29,-0.26,-0.35,-0.36,-0.69,0.13,-1.34,0.19,2.79,-0.06,4.58,0.13,0.93,-2.25,-0.36,0.28,-0.13,-0.06,0.5,0.56,-0.82,2.41,1.51,-0.93,-0.97,1.6,0.72,-2.06,0.8,1.2,0.17,0.19,0.56,-1.24,0.76,0.29,-1.18,-0.19,0.82,1.52,-1.05,-0.31,0.28,-4.16,-1.13,-2.6,-0.98,-2.44,1.65,-2.44,-1.26,0.15,1.24,-1.22,-0.14,0.32,-0.14,-0.1,-0.13,0.6,-0.73,-0.26,0.75,-0.54,-0.85,2.68,-0.26,-0.93,0.02,-0.35,-0.63,0.71,1.01,-1.66,-0.95,-0.02,-0.52,0.51,-0.2,-0.52,0.46,-0.74,0.56,-2.08,-0.28,0.6,0.94,-1.61,-0.69,-1.44,-0.32,1.03,-1.37,-1.34,-1.47,-2.31,-0.76,-1.09,0.12,-0.94,-0.91,3.45,1.24,0.89,-0.81,0.24,-0.34,-1.97,2.03,-1.49,2.6,2.17,2.61,0.38,0.43,0.51,0.7,-2.8,-0.29,-1.53,-0.74,-3.74,0.78,2.8,1.81,2.11,0.0,0.63,-0.8,0.67,0.08,-1.81,0.49,0.4,-0.72,0.21,2.26,-0.36,-2.6,-0.53,-0.21,-2.2,0.97,-1.27,-2.31,0.27,1.95,-0.21,4.39,2.49,2.12,-0.6,3.73,-0.05,-1.09,0.15,0.79,1.84,-0.25,-1.46,0.3,-0.66,1.17,0.34,-1.71,0.86,1.81,1.2,0.07,0.93,1.55,-2.01,0.19,-0.14,-0.57,1.36,-3.03,-0.65,0.6,2.35,-1.31,1.31,-1.61,-0.37,0.21,1.84,-0.71,-0.86,1.02,0.6,-2.47,-0.65,1.2,-1.69,2.39,0.91,0.34,-2.43,2.5,-0.67,-1.49,-2.17,-1.76,-1.35,-0.52,2.29,-0.33,-1.27,-0.79,0.81,0.68,-1.12,0.07,-1.18,-0.46,-0.34,-2.21,-1.73,0.75,0.59,0.96,-2.17,0.51,3.51,-0.42,-3.03,3.03,0.98,-0.6,1.85,-0.21,0.15,1.58,-2.23,-0.62,2.77,-1.62,0.34,1.94,0.88,-0.88,1.82,-1.53,1.1,0.67,-3.67,2.29,-0.69,-0.5,-2.68,-0.08,2.05,2.3,1.5,4.35,-4.09,0.67,1.11,2.04,1.07,-0.21,0.67,0.84,-1.87,0.94,0.51,-1.11,1.88,0.23,2.28,-2.78,-0.9,1.19,-2.17,0.65,0.54,0.66,0.1,0.13,3.05,0.17,-0.22,-1.71,3.4,0.61,1.24,-0.22,1.25,-0.63,2.27,0.82,-1.96,-0.09,0.45,-0.81,-1.27,0.82,-0.15,0.43,0.96,0.94,-0.89,-1.56,1.05,0.77,-0.95,0.93,0.33,1.47,0.7,0.58,-1.25,-0.37,-0.67,0.1,0.53,-0.53,0.66,3.43,-1.24,0.41,-1.76,0.4,1.76,-0.29,-1.07,-0.06,0.86,1.92,-1.3,-0.26,-0.52,-1.41,1.1,0.64,-0.02,1.0,-0.36,0.73,-2.22,-0.3,-0.04,0.59,-0.75,-0.21,-0.41,-0.67,-0.83,0.58,-0.66,-1.07,-1.63,1.98,-0.98,0.16,2.7,-2.34,0.52,2.37,2.21,2.93,-0.31,-0.91,-1.45,0.21,0.55,-0.96,0.07,0.41,0.91,0.59,0.34,0.48,-0.04,-0.45,-0.55,1.16,-1.2,-1.27,0.24,-0.36,4.58,-0.46,0.25,-1.71,0.93,-1.21,-1.43,2.1,1.43,-1.61,0.24,1.96,-2.0,-2.5,-0.96,0.41,4.5,0.77,1.16,-0.16,-1.18,1.01,-0.41,-0.44,0.01,-0.7,0.42,0.07,-1.79,-0.68,-1.83,0.8,0.94,-0.31,-0.36,-0.81,0.29,-0.77,-0.85,-0.24,-0.16,1.03,1.2,-3.07,-0.17,0.46,0.08,-0.01,-0.66,1.49,0.54,0.71,-3.76,0.4,0.67,-0.52,2.21,-0.41,-3.17,0.84,5.21,-0.96,-1.07,-0.42,0.45,-0.39,0.9,0.86,-3.27,1.01,-2.48,0.89,-0.09,-0.79,-1.04,-1.2,0.46,-0.67,-0.28,-0.84,-0.32,-0.05,0.91,-0.63,0.55,0.6,-1.3,0.17,1.36,-0.14,0.55,-0.47,0.06,-0.31,-0.76,-1.26,-0.81,0.27,0.29,-1.26,-0.99,0.23,-1.19,-1.43,1.26,-1.3,-2.06,1.54,0.71,0.21,-0.56,0.9,-0.16,-0.89,-0.88,-0.94,-1.23,-1.62,-0.22,1.13,-2.51,1.8,-0.71,0.07,1.45,-0.87,-3.98,1.93,-1.71,0.46,0.66,1.52,-1.33,-0.11,0.47,-1.96,0.31,0.33,-0.08,0.03,1.79,1.82,-1.02,0.37,-0.54,0.88,-1.82,0.08,-0.87,0.4,-0.21,-0.33,-1.61,0.08,-0.28,-1.64,-0.47,0.58,-0.72,1.47,-0.11,-0.57,-1.47,-0.5,-0.37,0.23,-2.44,1.85,1.3,-0.72,1.53,-0.54,0.58,-1.59,-1.04,-0.33,-0.54,1.43,-1.02,-0.59,0.3,-1.26,-0.07,-0.85,1.32,-0.24,-0.36,0.08,1.73,-2.07,0.48,1.75,-1.38,0.51,-1.1,-1.82,0.95,-0.3,1.06,-0.98,0.35,0.18,-0.65,-0.19,0.84,0.53,0.18,1.37,-1.52,-1.9,0.37,1.49,1.01,-0.89,1.44,-0.11,0.59,-0.55,2.75,-1.34,-0.48,0.29,0.09,-0.91,1.36,-0.59,-0.18,1.63,-0.3,-3.49,1.63,-0.22,1.34,-1.17,-1.51,-0.62,-0.94,-0.73,-2.25,-1.4,0.74,-0.12,0.33,0.95,-0.18,-0.5,-0.95,0.53,0.75,0.99,0.65,-0.05,1.13,0.85,-1.09,0.82,0.62,1.78,0.28,0.79,0.28,0.05,0.6,0.23,0.78,1.29,0.88,0.42,-0.63,0.01,1.66,-0.48,-0.32,0.05,0.4,-0.03,-0.32,0.16,0.57,-0.88,0.08,0.2,-0.88,0.07,1.06,-0.1,-1.22,-0.14,0.47,2.26,0.87,0.62,1.5,1.58,0.7,1.81,-1.26,-1.18,0.95,0.05,0.26,-1.38,0.18,0.14,-0.12,0.06,-0.64,-0.82,-0.43,-1.75,0.09,0.94,1.32,-0.41,-1.64,0.21,-1.57,0.83,0.11,0.72,-1.09,-0.52,-0.45,-1.79,1.06,1.48,1.54,2.59,0.84,2.17,-0.7,-0.05,-1.2
