2014-01-02,2014-01-03,2014-01-06,2014-01-07,2014-01-08,2014-01-09,2014-01-10,2014-01-13,2014-01-14,2014-01-15,2014-01-16,2014-01-17,2014-01-21,2014-01-22,2014-01-23,2014-01-24,2014-01-27,2014-01-28,2014-01-29,2014-01-30,2014-01-31,2014-02-03,2014-02-04,2014-02-05,2014-02-06,2014-02-07,2014-02-10,2014-02-11,2014-02-12,2014-02-13,2014-02-14,2014-02-18,2014-02-19,2014-02-20,2014-02-21,2014-02-24,2014-02-25,2014-02-26,2014-02-27,2014-02-28,2014-03-03,2014-03-04,2014-03-05,2014-03-06,2014-03-07,2014-03-10,2014-03-11,2014-03-12,2014-03-13,2014-03-14,2014-03-17,2014-03-18,2014-03-19,2014-03-20,2014-03-21,2014-03-24,2014-03-25,2014-03-26,2014-03-27,2014-03-28,2014-03-31,2014-04-01,2014-04-02,2014-04-03,2014-04-04,2014-04-07,2014-04-08,2014-04-09,2014-04-10,2014-04-11,2014-04-14,2014-04-15,2014-04-16,2014-04-17,2014-04-21,2014-04-22,2014-04-23,2014-04-24,2014-04-25,2014-04-28,2014-04-29,2014-04-30,2014-05-01,2014-05-02,2014-05-05,2014-05-06,2014-05-07,2014-05-08,2014-05-09,2014-05-12,2014-05-13,2014-05-14,2014-05-15,2014-05-16,2014-05-19,2014-05-20,2014-05-21,2014-05-22,2014-05-23,2014-05-27,2014-05-28,2014-05-29,2014-05-30,2014-06-02,2014-06-03,2014-06-04,2014-06-05,2014-06-06,2014-06-09,2014-06-10,2014-06-11,2014-06-12,2014-06-13,2014-06-16,2014-06-17,2014-06-18,2014-06-19,2014-06-20,2014-06-23,2014-06-24,2014-06-25,2014-06-26,2014-06-27,2014-06-30,2014-07-01,2014-07-02,2014-07-03,2014-07-07,2014-07-08,2014-07-09,2014-07-10,2014-07-11,2014-07-14,2014-07-15,2014-07-16,2014-07-17,2014-07-18,2014-07-21,2014-07-22,2014-07-23,2014-07-24,2014-07-25,2014-07-28,2014-07-29,2014-07-30,2014-07-31,2014-08-01,2014-08-04,2014-08-05,2014-08-06,2014-08-07,2014-08-08,2014-08-11,2014-08-12,2014-08-13,2014-08-14,2014-08-15,2014-08-18,2014-08-19,2014-08-20,2014-08-21,2014-08-22,2014-08-25,2014-08-26,2014-08-27,2014-08-28,2014-08-29,2014-09-02,2014-09-03,2014-09-04,2014-09-05,2014-09-08,2014-09-09,2014-09-10,2014-09-11,2014-09-12,2014-09-15,2014-09-16,2014-09-17,2014-09-18,2014-09-19,2014-09-22,2014-09-23,2014-09-24,2014-09-25,2014-09-26,2014-09-29,2014-09-30,2014-10-01,2014-10-02,2014-10-03,2014-10-06,2014-10-07,2014-10-08,2014-10-09,2014-10-10,2014-10-13,2014-10-14,2014-10-15,2014-10-16,2014-10-17,2014-10-20,2014-10-21,2014-10-22,2014-10-23,2014-10-24,2014-10-27,2014-10-28,2014-10-29,2014-10-30,2014-10-31,2014-11-03,2014-11-04,2014-11-05,2014-11-06,2014-11-07,2014-11-10,2014-11-11,2014-11-12,2014-11-13,2014-11-14,2014-11-17,2014-11-18,2014-11-19,2014-11-20,2014-11-21,2014-11-24,2014-11-25,2014-11-26,2014-11-28,2014-12-01,2014-12-02,2014-12-03,2014-12-04,2014-12-05,2014-12-08,2014-12-09,2014-12-10,2014-12-11,2014-12-12,2014-12-15,2014-12-16,2014-12-17,2014-12-18,2014-12-19,2014-12-22,2014-12-23,2014-12-24,2014-12-26,2014-12-29,2014-12-30,2014-12-31,2015-01-02,2015-01-05,2015-01-06,2015-01-07,2015-01-08,2015-01-09,2015-01-12,2015-01-13,2015-01-14,2015-01-15,2015-01-16,2015-01-20,2015-01-21,2015-01-22,2015-01-23,2015-01-26,2015-01-27,2015-01-28,2015-01-29,2015-01-30,2015-02-02,2015-02-03,2015-02-04,2015-02-05,2015-02-06,2015-02-09,2015-02-10,2015-02-11,2015-02-12,2015-02-13,2015-02-17,2015-02-18,2015-02-19,2015-02-20,2015-02-23,2015-02-24,2015-02-25,2015-02-26,2015-02-27,2015-03-02,2015-03-03,2015-03-04,2015-03-05,2015-03-06,2015-03-09,2015-03-10,2015-03-11,2015-03-12,2015-03-13,2015-03-16,2015-03-17,2015-03-18,2015-03-19,2015-03-20,2015-03-23,2015-03-24,2015-03-25,2015-03-26,2015-03-27,2015-03-30,2015-03-31,2015-04-01,2015-04-02,2015-04-06,2015-04-07,2015-04-08,2015-04-09,2015-04-10,2015-04-13,2015-04-14,2015-04-15,2015-04-16,2015-04-17,2015-04-20,2015-04-21,2015-04-22,2015-04-23,2015-04-24,2015-04-27,2015-04-28,2015-04-29,2015-04-30,2015-05-01,2015-05-04,2015-05-05,2015-05-06,2015-05-07,2015-05-08,2015-05-11,2015-05-12,2015-05-13,2015-05-14,2015-05-15,2015-05-18,2015-05-19,2015-05-20,2015-05-21,2015-05-22,2015-05-26,2015-05-27,2015-05-28,2015-05-29,2015-06-01,2015-06-02,2015-06-03,2015-06-04,2015-06-05,2015-06-08,2015-06-09,2015-06-10,2015-06-11,2015-06-12,2015-06-15,2015-06-16,2015-06-17,2015-06-18,2015-06-19,2015-06-22,2015-06-23,2015-06-24,2015-06-25,2015-06-26,2015-06-29,2015-06-30,2015-07-01,2015-07-02,2015-07-06,2015-07-07,2015-07-08,2015-07-09,2015-07-10,2015-07-13,2015-07-14,2015-07-15,2015-07-16,2015-07-17,2015-07-20,2015-07-21,2015-07-22,2015-07-23,2015-07-24,2015-07-27,2015-07-28,2015-07-29,2015-07-30,2015-07-31,2015-08-03,2015-08-04,2015-08-05,2015-08-06,2015-08-07,2015-08-10,2015-08-11,2015-08-12,2015-08-13,2015-08-14,2015-08-17,2015-08-18,2015-08-19,2015-08-20,2015-08-21,2015-08-24,2015-08-25,2015-08-26,2015-08-27,2015-08-28,2015-08-31,2015-09-01,2015-09-02,2015-09-03,2015-09-04,2015-09-08,2015-09-09,2015-09-10,2015-09-11,2015-09-14,2015-09-15,2015-09-16,2015-09-17,2015-09-18,2015-09-21,2015-09-22,2015-09-23,2015-09-24,2015-09-25,2015-09-28,2015-09-29,2015-09-30,2015-10-01,2015-10-02,2015-10-05,2015-10-06,2015-10-07,2015-10-08,2015-10-09,2015-10-12,2015-10-13,2015-10-14,2015-10-15,2015-10-16,2015-10-19,2015-10-20,2015-10-21,2015-10-22,2015-10-23,2015-10-26,2015-10-27,2015-10-28,2015-10-29,2015-10-30,2015-11-02,2015-11-03,2015-11-04,2015-11-05,2015-11-06,2015-11-09,2015-11-10,2015-11-11,2015-11-12,2015-11-13,2015-11-16,2015-11-17,2015-11-18,2015-11-19,2015-11-20,2015-11-23,2015-11-24,2015-11-25,2015-11-27,2015-11-30,2015-12-01,2015-12-02,2015-12-03,2015-12-04,2015-12-07,2015-12-08,2015-12-09,2015-12-10,2015-12-11,2015-12-14,2015-12-15,2015-12-16,2015-12-17,2015-12-18,2015-12-21,2015-12-22,2015-12-23,2015-12-24,2015-12-28,2015-12-29,2015-12-30,2015-12-31,2016-01-04,2016-01-05,2016-01-06,2016-01-07,2016-01-08,2016-01-11,2016-01-12,2016-01-13,2016-01-14,2016-01-15,2016-01-19,2016-01-20,2016-01-21,2016-01-22,2016-01-25,2016-01-26,2016-01-27,2016-01-28,2016-01-29,2016-02-01,2016-02-02,2016-02-03,2016-02-04,2016-02-05,2016-02-08,2016-02-09,2016-02-10,2016-02-11,2016-02-12,2016-02-16,2016-02-17,2016-02-18,2016-02-19,2016-02-22,2016-02-23,2016-02-24,2016-02-25,2016-02-26,2016-02-29,2016-03-01,2016-03-02,2016-03-03,2016-03-04,2016-03-07,2016-03-08,2016-03-09,2016-03-10,2016-03-11,2016-03-14,2016-03-15,2016-03-16,2016-03-17,2016-03-18,2016-03-21,2016-03-22,2016-03-23,2016-03-24,2016-03-28,2016-03-29,2016-03-30,2016-03-31,2016-04-01,2016-04-04,2016-04-05,2016-04-06,2016-04-07,2016-04-08,2016-04-11,2016-04-12,2016-04-13,2016-04-14,2016-04-15,2016-04-18,2016-04-19,2016-04-20,2016-04-21,2016-04-22,2016-04-25,2016-04-26,2016-04-27,2016-04-28,2016-04-29,2016-05-02,2016-05-03,2016-05-04,2016-05-05,2016-05-06,2016-05-09,2016-05-10,2016-05-11,2016-05-12,2016-05-13,2016-05-16,2016-05-17,2016-05-18,2016-05-19,2016-05-20,2016-05-23,2016-05-24,2016-05-25,2016-05-26,2016-05-27,2016-05-31,2016-06-01,2016-06-02,2016-06-03,2016-06-06,2016-06-07,2016-06-08,2016-06-09,2016-06-10,2016-06-13,2016-06-14,2016-06-15,2016-06-16,2016-06-17,2016-06-20,2016-06-21,2016-06-22,2016-06-23,2016-06-24,2016-06-27,2016-06-28,2016-06-29,2016-06-30,2016-07-01,2016-07-05,2016-07-06,2016-07-07,2016-07-08,2016-07-11,2016-07-12,2016-07-13,2016-07-14,2016-07-15,2016-07-18,2016-07-19,2016-07-20,2016-07-21,2016-07-22,2016-07-25,2016-07-26,2016-07-27,2016-07-28,2016-07-29,2016-08-01,2016-08-02,2016-08-03,2016-08-04,2016-08-05,2016-08-08,2016-08-09,2016-08-10,2016-08-11,2016-08-12,2016-08-15,2016-08-16,2016-08-17,2016-08-18,2016-08-19,2016-08-22,2016-08-23,2016-08-24,2016-08-25,2016-08-26,2016-08-29,2016-08-30,2016-08-31,2016-09-01,2016-09-02,2016-09-06,2016-09-07,2016-09-08,2016-09-09,2016-09-12,2016-09-13,2016-09-14,2016-09-15,2016-09-16,2016-09-19,2016-09-20,2016-09-21,2016-09-22,2016-09-23,2016-09-26,2016-09-27,2016-09-28,2016-09-29,2016-09-30,2016-10-03,2016-10-04,2016-10-05,2016-10-06,2016-10-07,2016-10-10,2016-10-11,2016-10-12,2016-10-13,2016-10-14,2016-10-17,2016-10-18,2016-10-19,2016-10-20,2016-10-21,2016-10-24,2016-10-25,2016-10-26,2016-10-27,2016-10-28,2016-10-31,2016-11-01,2016-11-02,2016-11-03,2016-11-04,2016-11-07,2016-11-08,2016-11-09,2016-11-10,2016-11-11,2016-11-14,2016-11-15,2016-11-16,2016-11-17,2016-11-18,2016-11-21,2016-11-22,2016-11-23,2016-11-25,2016-11-28,2016-11-29,2016-11-30,2016-12-01,2016-12-02,2016-12-05,2016-12-06,2016-12-07,2016-12-08,2016-12-09,2016-12-12,2016-12-13,2016-12-14,2016-12-15,2016-12-16,2016-12-19,2016-12-20,2016-12-21,2016-12-22,2016-12-23,2016-12-27,2016-12-28,2016-12-29,2016-12-30,2017-01-03,2017-01-04,2017-01-05,2017-01-06,2017-01-09,2017-01-10,2017-01-11,2017-01-12,2017-01-13,2017-01-17,2017-01-18,2017-01-19,2017-01-20,2017-01-23,2017-01-24,2017-01-25,2017-01-26,2017-01-27,2017-01-30,2017-01-31,2017-02-01,2017-02-02,2017-02-03,2017-02-06,2017-02-07,2017-02-08,2017-02-09,2017-02-10,2017-02-13,2017-02-14,2017-02-15,2017-02-16,2017-02-17,2017-02-21,2017-02-22,2017-02-23,2017-02-24,2017-02-27,2017-02-28,2017-03-01,2017-03-02,2017-03-03,2017-03-06,2017-03-07,2017-03-08,2017-03-09,2017-03-10,2017-03-13,2017-03-14,2017-03-15,2017-03-16,2017-03-17,2017-03-20,2017-03-21,2017-03-22,2017-03-23,2017-03-24,2017-03-27,2017-03-28,2017-03-29,2017-03-30,2017-03-31,2017-04-03,2017-04-04,2017-04-05,2017-04-06,2017-04-07,2017-04-10,2017-04-11,2017-04-12,2017-04-13,2017-04-17,2017-04-18,2017-04-19,2017-04-20,2017-04-21,2017-04-24,2017-04-25,2017-04-26,2017-04-27,2017-04-28,2017-05-01,2017-05-02,2017-05-03,2017-05-04,2017-05-05,2017-05-08,2017-05-09,2017-05-10,2017-05-11,2017-05-12,2017-05-15,2017-05-16,2017-05-17,2017-05-18,2017-05-19,2017-05-22,2017-05-23,2017-05-24,2017-05-25,2017-05-26,2017-05-30,2017-05-31,2017-06-01,2017-06-02,2017-06-05,2017-06-06,2017-06-07,2017-06-08,2017-06-09,2017-06-12,2017-06-13,2017-06-14,2017-06-15,2017-06-16,2017-06-19,2017-06-20,2017-06-21,2017-06-22,2017-06-23,2017-06-26,2017-06-27,2017-06-28,2017-06-29,2017-06-30,2017-07-03,2017-07-05,2017-07-06,2017-07-07,2017-07-10,2017-07-11,2017-07-12,2017-07-13,2017-07-14,2017-07-17,2017-07-18,2017-07-19,2017-07-20,2017-07-21,2017-07-24,2017-07-25,2017-07-26,2017-07-27,2017-07-28,2017-07-31,2017-08-01,2017-08-02,2017-08-03,2017-08-04,2017-08-07,2017-08-08,2017-08-09,2017-08-10,2017-08-11,2017-08-14,2017-08-15,2017-08-16,2017-08-17,2017-08-18,2017-08-21,2017-08-22,2017-08-23,2017-08-24,2017-08-25,2017-08-28,2017-08-29,2017-08-30,2017-08-31,2017-09-01,2017-09-05,2017-09-06,2017-09-07,2017-09-08,2017-09-11,2017-09-12,2017-09-13,2017-09-14,2017-09-15,2017-09-18,2017-09-19,2017-09-20,2017-09-21,2017-09-22,2017-09-25,2017-09-26,2017-09-27,2017-09-28,2017-09-29,2017-10-02,2017-10-03,2017-10-04,2017-10-05,2017-10-06,2017-10-09,2017-10-10,2017-10-11,2017-10-12,2017-10-13,2017-10-16,2017-10-17,2017-10-18,2017-10-19,2017-10-20,2017-10-23,2017-10-24,2017-10-25,2017-10-26,2017-10-27,2017-10-30,2017-10-31,2017-11-01,2017-11-02,2017-11-03,2017-11-06,2017-11-07,2017-11-08,2017-11-09,2017-11-10,2017-11-13,2017-11-14,2017-11-15,2017-11-16,2017-11-17,2017-11-20,2017-11-21,2017-11-22,2017-11-24,2017-11-27,2017-11-28,2017-11-29,2017-11-30,2017-12-01,2017-12-04,2017-12-05,2017-12-06,2017-12-07,2017-12-08,2017-12-11,2017-12-12,2017-12-13,2017-12-14,2017-12-15,2017-12-18,2017-12-19,2017-12-20,2017-12-21,2017-12-22,2017-12-26,2017-12-27,2017-12-28,2017-12-29
94.75,94.7,94.815,93.8,94.275,94.855,95.285,94.965,94.285,95.635,91.285,94.25,95.165,95.075,93.355,92.615,91.0,91.545,91.025,91.85,91.105,91.255,88.865,87.945,88.715,90.3,91.065,92.205,93.015,92.5,93.615,94.23,92.825,93.5,94.385,94.745,94.155,95.2,96.4,97.02,96.615,99.875,100.0,99.88,100.17,99.66,100.5,98.605,99.115,97.295,97.595,98.235,99.445,97.24,98.235,98.05,97.07,96.705,95.215,95.015,96.36,97.54,98.085,98.625,100.235,98.635,96.44,96.345,97.99,94.7,94.58,94.32,95.0,99.995,99.05,98.435,98.33,98.315,96.935,96.885,96.175,96.145,96.575,96.205,97.43,97.365,98.16,98.81,98.125,98.915,99.65,98.795,98.15,97.415,97.965,98.14,98.01,98.505,98.135,99.75,99.25,100.215,100.465,100.905,100.705,100.815,101.79,102.12,102.315,102.2,102.25,102.685,101.915,101.875,101.26,101.125,101.705,101.915,102.44,101.8,101.71,102.365,100.805,105.965,105.11,104.285,104.345,104.5,103.95,103.9,102.825,103.52,104.245,104.36,103.375,102.51,104.1,104.295,104.64,105.085,105.0,105.0,104.64,104.25,102.625,101.91,98.49,99.055,99.63,98.95,99.815,98.895,100.325,99.675,100.36,100.775,101.03,101.15,102.05,102.0,102.35,102.55,102.555,102.865,103.055,102.345,102.97,103.195,102.865,101.915,101.875,101.855,102.06,100.59,100.495,100.66,99.88,99.69,100.73,101.105,101.98,101.48,99.62,99.35,99.695,98.56,98.64,99.54,98.25,95.435,96.015,96.77,95.195,93.225,94.995,92.89,91.645,88.56,87.685,86.95,92.32,93.89,95.975,98.63,97.985,97.43,96.58,97.385,97.505,102.62,97.395,102.025,100.125,100.21,102.5,101.53,103.285,103.125,102.62,102.115,102.555,102.0,102.475,104.345,104.92,107.52,107.8,107.59,107.575,109.15,108.73,110.605,109.8,111.555,111.95,111.2,110.505,112.805,110.43,110.82,110.51,108.145,108.545,112.215,114.04,114.32,115.09,115.75,115.69,115.455,115.765,116.125,115.575,113.53,112.355,111.49,113.12,115.115,113.5,113.705,112.16,114.555,113.035,115.545,113.735,114.355,115.5,113.55,113.0,113.065,111.0,111.37,110.625,113.215,113.3,114.48,115.09,115.18,114.59,113.96,115.13,116.845,117.15,117.15,117.24,117.315,117.605,118.425,118.0,117.62,117.935,118.445,118.445,116.56,117.915,116.685,116.22,114.965,113.91,112.695,114.355,114.37,114.235,112.955,114.085,113.67,114.365,113.195,112.895,110.295,111.01,112.15,111.465,112.675,111.71,111.33,112.02,112.16,113.185,114.5,114.675,114.705,114.37,116.515,112.565,114.02,114.105,113.58,113.04,112.935,111.73,110.265,109.85,110.24,110.865,112.44,113.25,111.33,110.75,113.89,114.265,113.255,112.255,113.615,114.34,115.85,115.44,115.0,114.16,114.32,114.21,113.76,114.145,114.635,114.085,114.335,114.665,114.465,113.96,114.205,114.24,115.215,116.405,116.825,115.64,115.22,116.27,117.12,117.16,118.0,118.48,118.28,118.1,118.14,117.14,115.69,115.78,117.15,114.81,115.33,113.91,114.66,114.12,116.19,116.5,117.32,117.09,112.46,111.95,111.12,108.12,108.1,105.54,102.69,103.01,107.08,108.5,109.0,107.31,108.0,107.69,106.24,104.86,104.72,105.36,103.64,104.26,103.64,104.21,104.42,103.78,101.91,98.56,92.03,94.87,92.68,94.67,94.85,95.56,93.27,92.76,94.06,92.67,94.94,97.36,96.09,96.3,96.31,94.16,94.42,95.07,93.11,93.55,92.23,91.75,89.05,88.66,87.5,84.69,87.09,82.93,89.05,93.44,94.61,92.9,94.17,95.7,96.66,96.54,96.85,97.81,100.2,100.03,101.17,101.72,101.6,104.5,104.1,103.47,103.47,104.4,104.58,104.22,104.05,104.65,103.72,102.49,102.71,101.39,101.51,100.61,99.34,100.91,101.9,101.81,104.23,103.5,105.0,104.53,105.91,106.28,106.36,106.39,106.2,105.4,104.51,105.27,103.92,102.75,101.33,99.46,98.56,98.72,99.18,100.53,97.99,96.92,97.9,99.38,99.94,100.2,100.82,100.33,99.38,97.27,98.63,96.44,95.07,95.68,94.84,95.33,95.98,93.29,91.64,92.8,90.45,93.0,92.79,92.81,91.48,92.43,93.29,92.72,93.71,94.97,94.29,95.33,95.31,92.21,88.62,91.67,89.35,90.06,93.06,94.31,95.2,94.66,96.87,96.54,93.61,96.11,97.73,97.97,97.55,99.22,98.96,100.67,101.84,102.38,102.2,102.6,104.15,104.34,103.95,104.22,106.9,109.62,109.62,108.8,108.91,108.2,109.39,108.8,111.0,111.9,110.44,113.15,111.49,111.37,111.35,111.03,112.07,112.09,113.42,113.74,114.69,115.0,116.24,116.85,111.7,111.35,113.0,113.37,113.89,111.89,112.4,110.18,110.09,108.51,109.04,107.7,108.14,107.8,108.74,108.23,107.57,107.19,107.82,106.93,106.0,106.38,106.19,106.57,108.26,108.35,107.96,108.65,107.31,107.36,108.07,108.1,108.15,108.06,110.21,109.77,108.94,107.31,107.3,105.62,107.0,109.28,108.65,108.4,109.7,108.09,101.41,99.95,101.94,102.57,104.32,103.92,102.2,103.28,104.18,106.63,107.55,109.1,109.81,109.02,109.0,108.64,108.79,109.0,108.59,107.23,107.07,106.87,105.72,104.99,104.1,104.88,104.13,104.3,104.61,104.45,104.35,104.69,104.82,104.61,104.13,104.51,103.66,103.59,103.22,104.43,105.87,106.28,106.1,106.97,105.91,107.35,107.08,106.02,106.74,107.37,107.24,106.54,104.58,100.48,101.71,101.07,100.69,100.63,100.93,100.41,101.8,103.51,103.11,103.07,102.0,102.92,103.65,102.65,103.27,103.8,102.3,101.4,97.19,94.31,93.25,92.39,91.01,92.75,92.6,93.75,92.82,92.69,91.42,92.75,90.55,91.01,93.03,93.44,93.35,93.25,92.85,92.76,92.02,94.16,93.83,92.36,95.91,96.32,96.4,96.1,95.96,96.77,96.23,95.56,96.45,96.59,97.63,97.92,97.35,98.46,96.42,95.29,95.36,95.98,96.31,98.18,99.48,99.07,98.13,97.07,96.2,96.07,96.06,96.26,95.39,95.94,95.04,95.05,96.34,94.7,95.43,95.43,95.71,96.46,95.77,95.05,96.07,96.25,96.45,96.83,95.79,95.97,97.84,98.03,98.74,100.74,102.2,101.64,101.69,102.15,101.72,99.65,100.51,101.11,100.32,100.04,100.08,100.19,100.2,100.94,100.91,101.0,101.8,101.71,102.5,102.4,103.23,102.13,103.08,102.32,103.45,103.3,102.43,101.95,101.14,100.64,106.0,103.94,102.26,102.47,102.89,104.65,104.39,104.23,105.39,104.4,103.93,104.5,102.76,103.85,104.89,105.45,104.94,105.5,105.08,105.0,105.18,105.15,105.89,105.49,105.5,105.0,104.82,104.87,104.97,105.63,106.66,108.03,108.18,110.89,110.58,111.05,109.67,109.69,109.32,109.33,110.0,109.75,108.47,107.94,107.31,107.29,107.16,107.92,106.71,105.62,105.11,106.95,106.48,106.8,107.17,106.72,107.0,106.67,106.49,109.14,110.0,107.86,108.57,107.35,108.07,110.0,110.06,111.68,110.47,111.2,111.51,110.88,111.0,110.77,110.5,110.55,110.49,111.0,111.06,110.18,110.61,111.22,110.44,110.35,110.73,111.1,111.67,111.79,112.64,112.8,112.84,113.13,109.59,106.25,105.19,106.2,107.13,106.83,106.15,106.32,104.94,104.92,106.46,104.94,105.2,104.26,103.04,102.8,101.56,101.71,102.6,103.17,103.56,102.43,102.1,102.66,104.02,103.91,103.98,103.88,103.45,103.62,104.22,104.8,104.46,103.92,104.37,103.63,104.48,106.08,106.42,105.25,106.25,106.2,107.0,108.52,108.66,108.96,108.23,109.39,108.64,107.92,108.74,108.66,111.6,112.09,112.47,112.88,113.07,112.64,112.38,112.25,113.88,113.77,113.12,113.15,111.0,114.95,117.68,117.65,117.26,118.59,118.5,117.55,116.57,116.34,116.1,116.18,116.56,116.55,116.22,115.05,114.68,114.26,113.49,114.09,113.79,114.0,114.08,115.61,115.63,115.81,115.95,116.26,117.48,117.1,117.31,117.9,117.37,116.6,116.03,116.24,116.06,115.74,116.08,116.62,114.69,115.465,116.46,116.68,116.67,116.07,116.4,116.46,116.69,117.34
95.145,95.05,94.995,94.57,95.0975,95.615,95.77,95.675,95.505,95.775,94.947,96.115,95.7699,95.345,94.02,92.85,92.245,92.33,92.435,92.8245,92.25,91.665,89.72,88.815,89.655,91.275,92.455,93.31,93.535,93.92,94.74,94.25,94.365,94.44,95.4025,95.495,96.0,97.06,97.335,99.075,99.17,100.205,100.4788,100.645,100.62,100.415,100.5,99.0125,99.4,98.06,98.595,99.405,99.61,98.065,99.07,98.2,97.545,97.0,95.48,95.855,97.49,98.36,98.995,100.025,100.795,98.8675,97.065,97.985,98.0955,95.385,94.85,94.5775,95.965,100.0,99.71,98.995,99.06,98.47,97.15,97.285,96.725,97.0,97.105,97.785,98.105,98.245,99.45,99.44,98.42,99.825,99.75,99.205,98.225,97.79,99.234,98.62,98.9462,99.02,99.515,99.855,100.46,100.5,101.44,101.525,101.15,102.375,101.895,102.9,102.825,102.945,102.96,102.855,102.375,102.125,102.06,102.0,102.025,102.73,102.535,102.745,102.9225,102.385,102.1,106.505,105.495,104.74,105.18,104.53,104.43,104.05,103.905,104.1,104.47,104.745,103.595,104.875,105.25,104.905,105.545,105.83,105.66,105.25,104.82,104.285,103.335,101.91,99.62,100.495,100.3475,99.905,100.0,100.19,100.555,99.995,101.055,101.05,101.885,101.965,102.645,102.37,103.0,102.725,103.18,103.06,103.325,103.06,103.1,103.27,103.06,102.505,102.005,102.685,102.145,101.325,101.065,100.8912,100.1925,100.935,101.45,102.0175,102.58,101.73,99.965,100.415,99.81,99.35,99.945,99.69,98.25,95.95,96.83,96.77,95.195,94.88,95.13,93.705,91.995,89.98,90.57,91.75,94.185,95.635,98.1375,99.25,98.285,98.055,96.92,98.43,97.714,102.797,102.25,102.392,100.395,102.73,103.13,103.745,103.665,103.505,102.797,103.495,103.175,103.185,104.375,105.54,106.44,108.865,108.27,108.72,108.565,109.77,110.39,111.12,111.815,112.5825,112.725,111.975,112.895,112.805,112.155,111.205,111.235,110.665,111.52,113.55,114.8,115.015,116.08,115.92,116.395,116.58,116.305,116.835,116.17,113.875,112.65,112.35,115.3449,115.385,114.025,115.12,113.52,116.99,115.45,116.0,114.81,115.98,115.5,114.075,114.0125,113.855,113.035,113.03,112.12,113.875,114.47,115.615,116.0,115.43,114.725,114.6,116.795,118.425,118.49,118.19,118.5675,118.6,118.55,118.5975,118.705,118.405,118.48,118.875,118.49,118.95,118.135,117.385,116.86,115.06,114.075,114.915,114.745,115.125,114.77,116.08,114.487,115.125,114.91,113.935,113.515,111.25,112.0,113.025,113.2,112.98,112.635,112.485,113.165,113.33,114.26,114.95,115.375,114.859,114.545,116.555,114.005,114.47,114.14,114.2,113.43,113.405,111.98,110.67,111.165,111.585,112.405,113.0,113.49,111.4,112.88,115.26,115.09,113.66,112.9,114.5,115.89,115.85,115.955,115.39,115.115,115.16,114.59,114.825,115.065,115.16,115.13,114.955,115.05,115.125,114.58,114.2825,115.145,116.495,117.475,116.97,116.14,116.19,116.83,118.24,118.02,118.64,118.69,118.49,118.56,118.23,117.31,116.0,116.555,117.32,115.98,115.33,114.485,114.85,115.03,116.61,117.89,117.99,118.27,113.54,112.0,111.55,108.81,108.19,105.6,103.21,107.19,108.99,108.76,109.37,108.71,108.46,108.09,106.54,105.145,106.61,105.41,104.21,104.4,104.8,105.09,105.71,104.09,102.4,99.31,95.95,94.87,93.22,95.85,96.377,96.66,93.63,93.53,94.89,93.84,96.41,97.88,97.39,96.78,96.77,95.33,95.36,96.04,93.99,94.33,92.57,92.169,89.46,89.23,87.83,86.32,88.22,90.18,92.72,94.85,95.195,94.34,95.99,96.457,97.71,98.05,98.23,99.38,103.26,101.28,102.4,101.85,104.0,104.88,104.48,104.1899,104.35,104.67,104.78,104.69,104.79,104.72,104.005,103.26,102.77,101.85,101.97,101.12,101.48,102.12,103.0607,104.515,104.57,105.08,106.03,106.04,106.76,106.68,106.49,106.87,106.74,105.99,106.37,105.86,104.53,103.58,101.74,99.96,98.96,99.42,100.325,100.66,98.2,97.37,99.16,100.52,100.79,100.33,100.935,100.71,100.0,97.99,99.32,97.2,97.14,96.64,95.72,95.56,96.24,94.12,92.35,93.25,94.69,94.67,94.81,93.32,93.29,94.24,94.04,95.14,95.9,94.97,95.15,96.315,95.83,92.28,91.68,93.21,90.73,92.135,93.77,95.45,95.58,95.74,98.0,96.66,95.81,97.06,98.45,98.844,100.49,99.74,100.75,102.93,103.45,102.65,102.705,104.22,105.23,105.096,104.95,106.67,109.71,110.58,110.53,110.2,109.68,109.06,109.61,110.59,112.1,112.082,113.29,113.23,112.035,112.2,111.83,112.1399,112.84,113.17,114.29,114.59,115.4,115.93,116.8,117.0,113.0,113.39,113.3,113.91,114.65,113.4,112.73,111.25,110.22,109.36,109.53,108.31,108.23,108.825,109.2,108.55,108.07,108.64,108.265,107.79,106.65,107.03,106.83,108.15,108.73,109.0,108.71,108.87,108.21,108.2,108.17,108.87,108.3599,111.26,110.49,109.86,109.25,107.85,107.64,107.01,108.26,109.73,108.65,108.4,111.26,108.09,101.47,100.56,102.72,104.15,105.49,103.93,103.02,103.78,106.6099,107.04,109.5,109.55,109.99,109.48,109.5,108.98,110.14,110.13,108.59,107.345,107.07,106.87,106.32,105.2295,105.06,104.88,104.38,104.82,104.985,104.7,105.2,105.07,105.38,104.87,104.75,105.355,104.03,103.96,104.86,105.2825,106.77,107.12,107.19,107.6499,107.89,107.6988,107.08,106.3,107.07,107.97,107.79,106.88,104.58,102.98,101.95,101.38,101.5963,100.82,101.55,101.95,102.54,104.22,103.7599,103.29,102.63,103.95,103.96,103.85,104.04,104.08,102.73,102.36,97.5,94.99,93.25,92.555,92.36,93.11,92.88,93.83,93.18,94.47,92.59,93.51,92.06,92.62,93.63,94.53,93.44,93.59,93.99,93.14,93.66,94.42,95.19,95.97,98.21,97.27,96.85,96.54,96.5699,96.83,96.23,96.33,96.71,97.69,98.13,97.95,98.45,98.69,96.8,95.5,96.99,96.363,98.21,99.67,100.17,99.85,98.39,97.88,97.12,96.7,96.87,96.4,96.2,95.99,95.04,95.93,96.47,95.32,95.5,95.97,97.52,96.62,96.14,96.46,96.65,96.67,96.975,97.1,96.08,96.85,98.98,99.82,100.31,102.55,102.28,102.0,102.1219,102.15,101.86,100.76,101.08,101.15,100.99,100.82,100.27,100.4805,100.95,101.25,101.75,101.67,101.99,102.37,103.13,103.34,103.23,103.365,103.4,102.76,103.82,103.3,103.17,101.96,101.245,113.49,106.0,104.52,102.73,102.47,104.41,104.65,105.0,105.72,106.24,104.4,105.46,104.87,104.01,105.3,105.95,105.96,105.52,105.62,105.29,106.67,105.86,106.2,106.41,106.11,105.5,105.31,105.46,105.38,105.8,106.61,107.16,108.22,111.06,110.89,111.987,111.05,109.95,113.0,109.674,110.29,111.34,109.95,108.72,108.54,107.76,107.47,108.42,108.07,107.08,106.11,107.13,107.1816,107.065,107.44,107.51,107.67,107.0,106.67,110.47,110.65,110.375,108.56,108.75,108.0,109.93,110.84,111.58,111.71,111.62,111.74,111.57,111.235,111.21,110.93,111.025,111.06,111.2225,111.3,111.3,110.53,111.1,111.6,110.62,111.13,111.4,111.28,112.18,112.63,113.14,113.46,112.99,113.665,109.59,107.4,105.84,107.52,107.22,107.19,106.54,106.45,105.29,106.85,106.46,105.29,105.91,104.43,103.82,103.115,101.56,102.8,103.21,103.88,103.98,102.85,102.53,104.745,104.42,104.57,104.09,104.36,104.04,104.3,104.47,104.92,104.7,104.64,104.37,103.94,106.11,106.75,106.54,106.62,106.58,106.93,108.38,109.27,109.9,109.18,110.16,109.74,108.93,108.93,109.56,111.16,112.42,112.89,113.17,114.15,113.07,112.735,112.585,113.82,113.9,113.99,113.55,113.32,115.36,117.8,117.91,118.72,117.92,119.07,119.85,117.83,117.09,116.72,116.21,116.86,116.78,116.96,116.45,115.73,115.04,114.88,114.57,114.09,114.19,114.46,115.91,115.85,116.54,116.53,116.375,117.42,117.735,118.5,117.59,118.92,117.64,117.18,116.6925,116.43,116.46,116.25,116.96,116.62,115.49,116.53,116.93,117.19,116.89,116.525,116.459,116.63,117.17,117.68
94.265,94.44,93.465,93.01,93.705,94.625,94.815,93.595,93.785,95.215,91.285,94.25,94.555,93.295,92.885,90.795,90.215,90.859,90.83,91.435,90.715,88.335,88.3975,86.9125,88.412,90.25,90.865,91.755,92.625,92.08,93.5476,93.11,92.795,93.045,94.35,94.25,94.15,95.125,95.6001,96.875,96.615,99.34,99.555,99.7225,99.62,99.32,98.725,98.1,97.255,97.1262,97.3713,98.22,97.225,97.005,97.27,96.1252,96.205,95.205,94.0172,94.705,96.005,96.69,97.73,98.0775,98.3551,96.145,95.15,95.855,94.945,93.815,93.57,92.59,94.245,98.24,98.195,98.14,97.9642,97.135,95.88,95.035,95.592,96.13,96.125,96.09,96.7925,96.505,97.5,97.485,97.405,98.36,98.78,98.165,96.5,96.48,97.6775,97.76,97.86,98.15,98.135,98.915,98.975,99.0094,100.07,100.48,100.465,100.035,100.55,102.005,102.18,101.63,102.146,101.675,101.605,100.905,101.0225,100.6351,101.4875,101.64,101.85,101.2605,101.71,100.955,100.8,104.3,104.415,103.97,104.19,103.6551,103.345,103.19,102.5,102.895,103.955,102.69,102.475,102.51,103.98,104.11,104.475,104.865,104.71,104.265,103.775,102.455,101.8,99.17,98.25,99.055,98.84,98.815,98.5,98.51,99.58,99.235,99.6,100.4603,100.435,101.11,101.911,101.595,102.04,102.215,102.46,101.65,102.285,102.1805,102.605,102.285,101.65,101.61,101.475,101.616,100.5532,100.06,100.225,99.475,99.2417,99.265,100.415,100.945,101.39,99.76,99.045,99.24,98.705,98.5,98.3625,98.19,94.835,93.945,95.365,95.28,93.165,92.54,92.805,91.73,88.09,87.71,86.5065,85.78,91.825,93.385,95.975,96.65,97.055,96.31,95.6,96.98,95.39,101.58,96.775,99.94,98.635,99.825,101.58,101.53,102.67,102.355,101.58,101.505,101.7355,101.705,102.175,104.01,104.805,106.85,107.225,107.59,107.275,108.24,108.3925,108.9725,109.565,111.23,111.225,110.835,110.505,110.24,110.235,109.88,108.115,108.02,108.345,111.455,113.505,113.665,114.9975,115.19,115.295,115.305,115.565,115.51,113.795,111.295,109.905,110.695,112.465,112.875,112.415,112.235,111.265,112.385,112.5302,113.08,113.105,113.155,113.885,112.605,112.13,110.62,110.155,111.37,109.94,111.9209,112.505,113.915,114.555,113.09,112.95,113.455,114.5575,116.55,116.755,116.615,117.01,116.05,117.4089,117.755,117.585,117.33,117.05,117.78,116.915,116.105,117.0601,115.825,115.76,113.8175,112.505,112.555,113.1675,114.015,113.065,111.5,112.925,112.89,113.21,112.745,111.14,110.025,110.465,111.575,111.08,111.175,111.465,111.0,111.705,112.16,112.7075,113.5162,114.21,113.46,113.26,113.2825,112.175,112.735,112.785,112.745,112.685,111.25,110.1875,109.3,109.565,110.01,110.58,112.285,110.705,110.33,110.34,113.4,113.605,112.21,111.25,113.0,113.92,114.75,114.695,114.115,114.1201,114.32,112.875,113.61,113.675,114.02,113.64,113.505,114.0122,114.12,113.235,113.605,113.8,115.005,115.48,116.095,114.95,115.0,115.14,116.79,116.82,117.76,117.76,117.9,117.7,117.6,114.88,114.4,115.23,115.24,114.21,113.36,113.02,112.63,113.54,115.96,116.46,116.79,111.535,111.66,110.62,107.86,107.29,105.1,102.19,101.61,102.64,106.84,107.57,108.18,107.07,106.2,106.2601,104.905,103.74,104.4,103.8,102.25,103.46,103.39,103.85,104.36,102.15,99.87,97.12,91.0,91.02,91.0,93.27,94.85,94.76,90.81,91.62,93.56,92.29,94.52,95.97,95.57,95.42,93.74,93.67,94.32,94.11,92.73,93.02,90.54,89.8,87.19,87.63,84.4,84.5,86.95,82.93,88.35,93.2,93.25,92.48,93.79,95.01,96.01,95.87,96.76,96.3101,99.99,99.4,100.75,99.9999,101.3423,103.73,103.42,102.63,102.71,103.58,103.68,103.36,103.66,103.79,102.44,101.83,100.75,100.38,100.854,99.205,98.86,100.23,101.45,101.55,102.8839,103.31,104.29,104.53,105.38,105.54,105.12,105.82,105.08,103.92,104.37,104.275,102.66,100.59,100.5101,98.41,96.88,98.47,98.53,98.17,96.25,96.491,97.56,99.24,99.94,99.42,99.95,99.71,98.79,96.06,97.465,95.93,94.68,94.17,93.73,93.79,93.01,91.6,90.34,89.9,90.02,90.61,92.33,90.93,91.11,91.9,91.976,92.28,93.25,92.66,91.87,94.6,92.71,88.86,88.37,91.04,88.4652,89.62,91.775,93.01,94.14,93.68,95.86,94.7,92.95,94.56,97.36,96.49,96.92,98.43,98.23,100.315,101.64,101.35,101.38,101.84,103.78,104.0,103.62,104.13,106.9,108.05,108.28,108.56,108.13,107.38,108.74,108.6122,110.73,111.13,110.22,111.63,110.91,110.64,110.08,111.03,111.59,111.36,112.7401,113.74,114.39,114.64,115.77,115.55,110.1,110.78,111.97,113.01,112.59,111.53,109.75,109.04,109.02,108.0,108.234,107.18,107.29,107.26,107.38,106.36,106.47,107.09,106.69,106.07,104.96,105.925,105.8,106.46,107.7,107.59,107.3,107.2,106.49,106.89,106.86,107.68,107.37,107.51,109.52,108.77,107.61,106.43,106.5,105.06,106.63,108.32,107.83,107.66,109.44,102.21,98.08,98.42,101.57,101.99,104.07,101.8,101.715,102.525,103.98,106.42,107.31,107.96,108.35,108.14,108.61,107.77,108.48,107.56,107.305,106.4,106.1789,105.76,104.8211,103.7401,103.74,103.35,102.87,103.85,104.35,104.05,104.19,104.09,104.43,103.71,104.02,103.65,102.9,103.36,103.22,104.0,105.6,106.0,106.05,105.41,105.91,106.67,105.43,105.09,106.32,107.01,106.42,105.28,100.76,100.42,100.58,99.964,100.38,99.78,100.53,100.41,101.26,102.92,102.78,102.01,101.545,102.37,101.975,102.65,103.27,101.8,101.55,101.22,92.51,93.22,91.51,91.43,90.31,92.55,92.24,92.79,92.16,92.51,90.48,92.7,89.64,91.01,92.74,92.27,92.81,91.75,92.37,91.66,91.54,93.57,93.5,90.879,95.78,95.49,95.13,95.51,95.86,96.095,95.12,95.31,96.03,96.36,97.35,96.77,96.92,95.83,94.85,94.15,95.23,95.52,96.21,97.88,98.92,97.76,96.65,95.91,95.63,95.78,95.97,95.56,95.05,94.93,93.8001,94.88,94.59,94.67,94.46,94.57,95.63,95.4,95.29,94.77,95.665,95.58,95.8,96.17,94.62,95.66,96.0,97.87,98.701,100.44,100.88,100.76,101.22,100.44,99.29,99.0,100.0416,100.42,99.55,99.77,99.57,99.79,100.02,100.64,100.47,100.911,100.99,100.74,102.35,102.32,102.19,101.93,102.26,101.96,103.05,102.3,101.68,100.96,100.67,100.34,101.4201,101.94,101.591,101.4501,102.19,103.02,103.38,102.36,104.43,102.64,103.5,103.56,102.2,103.57,104.545,105.16,103.9385,104.18,104.53,104.55,104.99,105.15,105.26,104.87,104.521,104.27,104.315,104.32,104.67,104.36,105.94,106.9,108.18,109.61,110.3,109.81,109.11,109.09,109.04,109.22,109.83,108.16,107.53,107.6,106.27,106.82,107.155,107.25,105.4,104.9,105.11,106.15,106.09,106.18,106.57,106.48,105.88,105.69,106.39,108.69,108.31,107.65,107.53,106.64,108.07,109.69,109.848,111.03,110.47,110.84,110.97,110.61,110.47,110.4,110.33,110.32,110.49,110.89,109.27,109.66,110.21,110.22,109.815,109.945,110.73,110.5501,111.26,111.73,112.32,112.5176,112.12,112.69,105.83,106.25,104.69,105.87,106.61,105.485,105.445,104.99,104.31,104.77,103.86,104.31,104.95,103.19,102.8,101.22,100.45,101.2,102.25,102.735,102.68,101.95,101.72,102.37,103.59,103.6,103.23,103.57,103.0301,103.46,103.82,104.1,103.32,103.1,103.1,101.61,103.94,105.55,104.75,104.6001,105.96,105.97,106.77,108.1801,108.66,108.47,108.0,108.13,107.81,107.7,108.42,108.4275,110.95,111.98,112.17,112.67,111.751,111.91,111.69,112.17,113.2,112.7,112.76,112.1,110.1,114.79,116.73,117.28,116.72,118.07,117.26,115.91,116.03,115.49,115.52,115.89,116.31,116.05,115.54,114.56,114.38,114.145,113.415,113.25,113.38,113.57,113.88,115.15,115.25,115.655,115.71,116.26,116.54,116.6,114.9,116.83,116.65,116.03,115.89,115.72,114.73,115.34,116.02,113.26,114.31,115.36,116.0,116.11,116.04,115.9,116.08,116.02,116.23,116.82
94.47,94.705,93.76,94.14,94.735,95.065,95.29,93.88,95.445,95.35,93.835,94.74,95.0,93.58,93.445,90.8,91.595,91.215,91.6,92.335,91.18,88.435,88.62,88.61,89.46,91.27,91.965,92.58,92.88,93.615,94.45,93.295,93.53,94.375,94.935,94.26,95.385,96.565,96.845,98.91,98.53,100.095,99.77,100.07,100.035,100.15,98.755,98.605,97.455,97.29,97.98,98.98,97.58,97.37,97.56,96.605,96.435,95.205,94.765,95.405,96.73,98.32,98.63,98.685,98.88,96.535,96.25,97.845,94.98,93.91,94.28,94.265,95.815,99.73,98.27,98.18,98.15,97.255,96.49,95.735,96.5,96.81,96.32,97.59,97.945,97.735,99.37,98.14,98.31,99.705,98.865,98.28,97.315,97.68,98.02,97.845,98.585,98.175,99.43,99.06,100.125,100.5,100.805,101.165,100.86,101.93,101.575,102.465,102.555,102.9,102.8,101.79,102.135,101.51,101.255,101.795,101.61,102.285,102.185,101.515,102.235,101.29,102.025,105.075,104.43,104.155,105.08,104.19,103.4,103.91,103.695,104.015,103.995,102.78,102.895,103.85,104.775,104.375,105.055,105.155,105.01,104.435,104.335,102.495,102.215,99.18,99.195,100.31,99.105,99.445,98.66,100.11,99.59,99.765,101.005,100.785,101.135,101.885,102.315,102.04,102.54,102.275,103.115,101.765,102.62,102.72,102.93,102.595,101.765,101.81,101.98,101.96,100.73,101.23,100.71,99.84,99.855,100.26,100.915,101.58,101.405,99.84,99.14,100.27,98.705,99.225,99.73,98.37,95.585,95.585,95.925,95.635,93.21,94.765,93.015,91.775,88.295,88.79,90.25,90.915,93.625,95.59,98.02,96.855,97.45,97.925,96.3,97.695,96.025,101.95,101.845,100.185,99.235,102.625,103.045,103.45,103.135,102.63,101.95,102.615,101.95,102.665,104.25,105.33,106.33,107.675,107.785,107.7,108.475,109.41,109.935,109.565,111.63,111.855,111.425,111.42,112.845,110.425,111.3,109.91,109.055,108.33,111.13,113.505,113.95,114.8,115.535,115.56,115.795,116.23,115.83,115.575,114.7,111.74,111.465,111.96,114.94,113.485,113.125,113.495,113.485,113.1,115.19,114.08,114.015,115.675,113.905,113.91,112.98,110.87,112.855,111.44,111.865,113.45,113.725,115.185,115.43,113.41,114.12,114.11,116.515,118.385,117.925,118.12,117.75,118.32,118.245,118.385,117.835,117.92,117.69,118.85,117.27,117.67,117.725,115.985,116.145,113.835,112.59,114.85,113.955,115.04,113.63,114.82,113.085,114.53,113.215,112.745,111.23,110.65,111.48,112.245,112.77,112.23,111.79,112.11,112.45,113.065,114.17,114.75,114.795,113.98,113.635,113.375,113.305,113.84,113.525,113.2,112.94,111.655,110.425,110.38,111.085,110.78,112.275,112.515,110.79,111.025,112.455,114.525,113.665,112.245,112.7,114.4,115.85,115.465,114.995,114.465,114.615,114.595,113.36,114.57,114.91,114.445,114.515,114.125,114.995,114.385,114.315,114.05,114.625,115.94,116.995,116.625,115.43,116.0,116.67,117.81,117.3,118.17,118.29,117.97,117.74,118.01,114.98,114.72,116.5,115.91,115.1,115.06,113.1,112.64,114.9,116.53,117.61,116.98,111.82,111.8,110.85,108.21,108.09,105.63,103.25,102.39,106.92,108.57,108.52,108.38,107.87,106.54,106.59,105.21,103.92,106.61,104.41,104.03,103.52,104.7,104.26,104.57,102.5,99.87,97.21,92.26,91.05,93.1,95.19,96.11,95.29,91.35,93.53,93.98,93.31,96.4,96.1,96.64,96.72,94.16,94.28,95.07,94.46,93.19,93.45,91.62,89.94,88.11,88.34,84.51,85.95,87.69,90.13,92.66,94.59,93.4,94.31,95.77,95.97,97.34,97.18,97.32,99.26,100.74,101.18,101.38,100.64,103.62,103.99,103.93,102.93,104.33,104.28,104.26,104.0,104.19,103.86,103.21,103.0,101.73,101.12,101.61,99.21,100.83,101.95,101.71,104.23,103.37,104.62,105.47,105.49,106.46,106.21,105.74,106.76,105.34,104.3,105.96,104.99,102.75,101.55,100.88,98.73,97.73,98.55,100.22,98.24,96.29,97.23,98.76,100.24,100.39,99.9,100.58,99.77,98.82,97.96,98.31,96.47,95.25,94.49,94.45,95.12,93.05,93.57,91.9,91.6,93.52,91.92,93.16,91.11,92.58,92.8,92.09,95.12,95.59,93.04,95.11,95.7,92.87,89.65,90.99,91.34,89.27,91.78,93.62,95.0,94.69,95.63,96.72,94.87,95.68,97.01,98.16,96.53,99.58,99.33,100.3,102.49,103.37,101.51,102.28,102.91,105.01,104.74,104.76,106.61,109.4,108.9,108.89,109.84,109.14,108.95,109.4,110.57,111.9,111.49,113.11,112.19,111.43,112.08,110.61,111.83,111.68,112.94,114.23,114.51,115.35,115.75,116.55,116.07,110.26,113.19,112.6,113.55,112.99,112.77,110.39,111.24,109.5,108.59,108.59,108.31,107.44,108.73,107.42,107.49,106.7,108.16,107.01,106.39,105.64,106.21,106.43,107.76,108.32,107.7,108.6,107.68,107.98,108.2,107.67,108.12,107.77,110.95,110.43,109.24,107.69,107.08,106.62,106.96,108.18,108.42,108.06,107.81,111.22,102.73,98.69,100.56,102.49,104.15,104.52,102.65,102.97,103.03,106.32,106.61,108.7,109.47,108.63,109.27,109.3,108.38,110.03,108.59,107.65,106.59,106.76,106.09,105.48,104.71,104.67,103.69,104.33,104.1,104.44,104.48,104.37,104.69,104.74,103.99,104.46,103.65,103.59,103.77,104.73,105.21,106.44,106.39,106.75,105.75,107.6,107.28,105.88,105.98,107.04,107.62,106.73,105.3,100.86,102.76,101.16,100.68,101.24,100.21,101.08,101.26,102.46,103.14,103.27,102.14,102.45,103.57,102.06,103.36,103.44,102.05,101.58,102.19,93.73,93.85,92.3,91.94,92.12,92.6,92.66,92.81,92.56,92.66,92.38,93.24,91.22,92.52,93.35,92.87,93.13,92.74,92.38,91.75,92.81,94.35,94.74,95.29,96.87,95.77,96.05,96.23,96.36,96.61,95.19,96.19,96.62,97.59,98.13,97.35,98.0,95.93,95.24,94.58,95.99,96.22,98.18,99.41,99.3,98.65,97.05,96.17,96.1,95.92,96.22,95.64,95.87,95.0,94.69,95.85,94.67,95.31,94.76,95.25,97.27,95.62,95.59,96.35,96.39,96.63,96.87,96.32,95.97,96.69,97.5,99.0,100.24,101.8,101.08,101.85,102.02,102.03,100.01,100.56,100.58,100.94,99.92,100.01,100.1,100.13,100.54,100.81,101.57,101.5,101.77,102.37,103.0,102.81,102.6,103.31,102.45,102.43,103.29,102.38,102.06,101.2,100.78,106.83,102.93,102.09,102.68,101.73,104.04,103.62,104.49,105.57,104.48,104.25,104.62,103.79,103.82,104.97,105.77,105.23,105.08,105.08,104.77,105.0,105.27,106.05,105.79,106.06,105.06,104.42,105.39,104.74,105.0,106.37,105.94,108.01,110.82,110.48,111.29,109.84,109.46,109.47,109.2,109.89,110.56,108.43,107.85,107.85,107.46,107.12,107.98,107.41,105.48,105.39,106.73,106.42,106.7,106.94,106.91,107.24,106.48,106.36,109.16,110.42,108.36,108.38,107.85,107.92,109.93,110.14,111.57,111.5,111.32,111.16,111.11,110.78,110.68,110.57,110.68,110.82,110.49,111.07,109.65,109.96,110.61,110.68,110.05,111.0,110.98,110.97,111.84,112.4,112.8,112.96,112.95,113.6,106.72,106.37,105.39,107.11,106.75,106.15,106.03,105.25,105.01,106.21,104.67,105.01,105.14,103.4,103.37,101.33,100.73,102.56,102.94,103.74,102.68,102.08,102.39,104.54,103.63,103.71,103.72,104.15,103.86,103.81,104.32,104.59,103.44,104.2,104.01,103.59,105.9,106.69,105.06,106.48,106.3,106.8,108.34,108.81,108.99,108.76,109.16,108.51,107.99,108.85,108.66,111.0,111.99,112.26,113.03,113.28,112.64,112.38,112.41,113.4,113.5,113.17,112.96,112.88,114.31,117.76,116.89,117.44,117.76,118.67,117.93,116.16,116.24,115.92,116.16,116.53,116.34,116.34,116.12,115.13,114.67,114.55,114.35,113.39,114.01,113.83,114.88,115.34,115.27,116.1,115.85,117.34,117.01,116.85,115.93,117.56,116.75,116.19,116.11,115.92,115.68,115.89,116.25,113.82,115.09,116.13,116.31,116.16,116.18,116.19,116.28,116.49,117.17,116.82
1368442.0,814210.0,1564888.0,2334806.0,2006506.0,2365968.0,2090224.0,2608954.0,1919416.0,2139978.0,3294232.0,3656372.0,2339614.0,2843852.0,2456858.0,2485314.0,2780934.0,2033198.0,1590910.0,1190058.0,2721166.0,2567098.0,1938010.0,2258642.0,1659072.0,1630078.0,2010686.0,1994692.0,1361850.0,1374444.0,1424170.0,2619898.0,1718042.0,1690740.0,2260026.0,1695460.0,1679166.0,1781238.0,1586136.0,2880670.0,1615348.0,1354068.0,1194204.0,979136.0,1540050.0,979180.0,1772036.0,1605502.0,1022386.0,1213960.0,1668824.0,1223136.0,1495186.0,1833742.0,3024786.0,1008728.0,1555466.0,1492414.0,1202978.0,1012728.0,1627780.0,1093652.0,1458230.0,1224566.0,2836316.0,2326994.0,1858608.0,1432086.0,1846940.0,1373442.0,1304142.0,1875386.0,2034346.0,3588108.0,2522990.0,1777904.0,1543562.0,1536786.0,1429058.0,1583838.0,987392.0,1120086.0,789074.0,1516208.0,888036.0,1240540.0,1619798.0,1200822.0,1004986.0,688840.0,950068.0,866178.0,933714.0,1471306.0,986330.0,1540442.0,1186328.0,691354.0,605160.0,1357730.0,1453010.0,1044522.0,1078052.0,615454.0,832148.0,1573510.0,986216.0,873764.0,840382.0,834482.0,763360.0,1284026.0,504108.0,860912.0,725668.0,1122874.0,850130.0,1507016.0,599898.0,1050830.0,1229450.0,955292.0,1474046.0,2919026.0,1358588.0,925572.0,577196.0,1243912.0,960070.0,849340.0,1188096.0,701112.0,631270.0,1512424.0,2035862.0,1891732.0,1397996.0,1377630.0,1163096.0,1484924.0,914544.0,629478.0,959992.0,1429730.0,1270480.0,1587234.0,1409110.0,990990.0,1059388.0,1186538.0,1035608.0,763322.0,753764.0,557820.0,815576.0,867494.0,882340.0,974512.0,814518.0,939810.0,928904.0,644878.0,921004.0,1174460.0,859020.0,758012.0,777086.0,858036.0,1174460.0,798942.0,1059268.0,656038.0,836774.0,804276.0,900712.0,949746.0,992602.0,1623634.0,1358514.0,1057584.0,1459036.0,1356966.0,1344200.0,1175508.0,1002538.0,766840.0,1099392.0,1598744.0,3028990.0,1724846.0,1442696.0,939324.0,2348094.0,2850160.0,2204986.0,2003946.0,2501064.0,2546056.0,3388842.0,4098508.0,3454772.0,2413438.0,2398810.0,2937430.0,1712038.0,1614978.0,2100284.0,2245822.0,3746720.0,2076566.0,5398172.0,2409226.0,1712600.0,2963360.0,1990214.0,1819388.0,1232066.0,1409692.0,2076566.0,1979978.0,1606442.0,1093220.0,1803044.0,2718654.0,1405770.0,2580772.0,2368002.0,1363974.0,909228.0,1286352.0,3195820.0,1815244.0,1591502.0,2052848.0,1528080.0,1805162.0,1781290.0,1529816.0,1499196.0,2741908.0,2578072.0,1946446.0,1943066.0,1510190.0,2143414.0,1646448.0,1018838.0,541664.0,604984.0,868892.0,843294.0,1271552.0,888776.0,1931756.0,1710598.0,2366478.0,2075872.0,1600170.0,1446834.0,1656402.0,2555722.0,3105548.0,1886332.0,2081936.0,1469090.0,1179620.0,952886.0,1002516.0,1246454.0,1411114.0,1528882.0,2708372.0,1589568.0,1328640.0,1099900.0,1352748.0,1145998.0,1741740.0,1005048.0,776132.0,1626256.0,1251190.0,1739148.0,1144030.0,949562.0,1347336.0,1347624.0,994720.0,1086134.0,967696.0,1394784.0,1454738.0,1237544.0,1687050.0,974302.0,1090056.0,1418660.0,1606786.0,1594238.0,986326.0,1181556.0,1091228.0,1116190.0,2110184.0,1017632.0,1555086.0,1290164.0,1174796.0,1306824.0,1125286.0,1222798.0,1266500.0,1838180.0,1623690.0,1421054.0,1100528.0,1187402.0,1620374.0,1177408.0,1408668.0,1344510.0,1281250.0,1849842.0,2492524.0,2212550.0,1911904.0,1181338.0,872110.0,855502.0,1729598.0,2169734.0,1957242.0,1753378.0,2217792.0,1515578.0,1091028.0,1420806.0,1412892.0,2165360.0,1585616.0,1722936.0,1247512.0,1544674.0,1527358.0,1263464.0,1843932.0,1481634.0,1284816.0,664410.0,742834.0,1470792.0,1433842.0,1230906.0,1200698.0,903348.0,768690.0,1113932.0,1406534.0,1045788.0,1051044.0,1070522.0,1979410.0,1806188.0,1162232.0,990493.0,1286916.0,2525445.0,1668934.0,2210023.0,901041.0,1174896.0,1918339.0,1207833.0,751278.0,996831.0,1115313.0,1256405.0,943202.0,1425884.0,1641163.0,1537031.0,1718949.0,1364125.0,1474669.0,1185055.0,1510758.0,5356139.0,3351851.0,2146926.0,3796705.0,2440856.0,3033240.0,3112136.0,2766020.0,3080811.0,2653502.0,1233782.0,1362379.0,1535424.0,1599089.0,1207686.0,1507655.0,1589333.0,1196626.0,1477890.0,3566690.0,1230526.0,1344721.0,1578163.0,2426648.0,2175164.0,2302416.0,2542954.0,3951133.0,2960871.0,3991735.0,4585858.0,1710015.0,1714133.0,2433813.0,2498278.0,1472064.0,2149396.0,1709644.0,2925368.0,2114865.0,1472635.0,2397318.0,2385582.0,1827604.0,2171415.0,2220822.0,1186599.0,1904974.0,1699186.0,3718159.0,1507090.0,2322877.0,2483655.0,2928363.0,3581533.0,2321962.0,1973817.0,2351686.0,2208796.0,1293623.0,1695281.0,1818662.0,2226693.0,2242369.0,3253581.0,3795596.0,1295898.0,1435715.0,1978855.0,2496932.0,1546620.0,1279200.0,1315178.0,1040455.0,1099892.0,1519924.0,1457191.0,1013389.0,730526.0,910478.0,1012111.0,893108.0,1316203.0,1011509.0,1903904.0,1938251.0,1766689.0,1381130.0,2128295.0,1252206.0,1761502.0,1999680.0,1159587.0,1152343.0,491594.0,1560416.0,1008405.0,996033.0,1131973.0,1079812.0,1000702.0,1568163.0,2035920.0,1651976.0,1783093.0,2216286.0,1258076.0,1585775.0,1584000.0,1807988.0,1202643.0,887327.0,827978.0,371784.0,680729.0,676561.0,730411.0,895356.0,1636433.0,1401524.0,1809335.0,2597603.0,1979363.0,2187220.0,1320681.0,2119863.0,2300175.0,2052762.0,3317956.0,4935210.0,4310680.0,1860686.0,1623206.0,1236814.0,1887428.0,2347271.0,2365396.0,1748378.0,1635958.0,1831786.0,1457465.0,1544365.0,1926814.0,1567212.0,1240182.0,1796456.0,1438716.0,1198946.0,1850168.0,1506434.0,1592329.0,1291571.0,1260295.0,815227.0,1036816.0,1078999.0,1430920.0,1503966.0,945054.0,1921725.0,2073315.0,1649018.0,1280035.0,1147527.0,902020.0,1479582.0,878714.0,819325.0,1122636.0,1789771.0,2628422.0,2170274.0,1663271.0,1222284.0,1386202.0,1043780.0,1026264.0,1636866.0,1438901.0,1453334.0,1390534.0,1319226.0,812145.0,921245.0,712045.0,887120.0,871345.0,1062905.0,1070934.0,1284875.0,1543522.0,1466605.0,1593694.0,3641264.0,2145526.0,951003.0,1525897.0,1246896.0,1617399.0,2308459.0,1390051.0,1303293.0,1062095.0,810173.0,1172291.0,1046643.0,817535.0,1623257.0,1130257.0,1547593.0,1488643.0,1226987.0,1996244.0,1153855.0,906316.0,1485412.0,1084848.0,800585.0,685735.0,732422.0,1807466.0,998448.0,759921.0,1338729.0,935929.0,1238473.0,1908107.0,2689507.0,1255754.0,1343900.0,1221823.0,1056485.0,843422.0,1807062.0,1227922.0,1346303.0,1219510.0,2078270.0,3821510.0,3449547.0,1941333.0,1582807.0,2192977.0,1334274.0,1898755.0,1451539.0,1547875.0,1649140.0,892797.0,1404235.0,1238503.0,1359368.0,1341275.0,870149.0,1424222.0,2361134.0,2139928.0,1708845.0,1670791.0,2285250.0,1627366.0,2163041.0,2107674.0,1641907.0,1473514.0,2415786.0,1282197.0,1063659.0,1211361.0,1044980.0,1102365.0,1096106.0,977582.0,1037262.0,1287115.0,1243021.0,1036944.0,1090001.0,1148549.0,1341749.0,1808389.0,914054.0,929702.0,1301714.0,1036536.0,1392251.0,929606.0,662667.0,1321192.0,1337902.0,1042443.0,2339450.0,1597182.0,1425355.0,1098659.0,1199563.0,1986709.0,1266116.0,1317944.0,1143979.0,1149767.0,1648992.0,928392.0,1290438.0,1300810.0,1162960.0,1716461.0,1348278.0,1560626.0,912363.0,1078775.0,7136802.0,3251573.0,4157688.0,2171212.0,2603365.0,2453246.0,1918790.0,1317470.0,2166432.0,2411418.0,2366992.0,2011073.0,4338508.0,2515849.0,2291233.0,2062332.0,2172977.0,2224383.0,2227472.0,1647574.0,1528583.0,2066789.0,1692133.0,3225509.0,2826797.0,2013836.0,2002259.0,1778804.0,1636390.0,1118735.0,1276934.0,1807111.0,1513562.0,1286678.0,482559.0,1251211.0,1467938.0,2704322.0,2444082.0,2085220.0,1634607.0,1358018.0,1581683.0,1494158.0,1355202.0,1528911.0,2145238.0,1576813.0,1684597.0,2050117.0,1473441.0,1418568.0,1189982.0,1177536.0,1816187.0,1200265.0,1155146.0,1150148.0,1248654.0,1358064.0,1334473.0,1661879.0,1379830.0,1454135.0,1418749.0,1169855.0,1027233.0,1237908.0,2251585.0,2144600.0,3378025.0,2805545.0,2340664.0,2264397.0,2107450.0,1591702.0,1333600.0,1996094.0,2571536.0,1643610.0,1971552.0,921564.0,1605982.0,1084109.0,1029155.0,726365.0,1304232.0,981485.0,1530961.0,877537.0,878930.0,1305967.0,2263346.0,1951353.0,1521216.0,1348643.0,1149052.0,1277456.0,1680749.0,1398884.0,1077308.0,928048.0,1211903.0,12605302.0,5750030.0,3039008.0,1442701.0,1208642.0,1789376.0,1194650.0,2972931.0,2573623.0,2055712.0,2044220.0,1838753.0,1284338.0,1588198.0,1084869.0,1144139.0,1413466.0,1236529.0,1317949.0,1214226.0,1664047.0,1247102.0,1116689.0,1029701.0,1154365.0,1174533.0,857460.0,859765.0,1148585.0,1176519.0,2230520.0,2044941.0,2096751.0,2342580.0,1332553.0,1715933.0,1046842.0,706473.0,1109178.0,927419.0,1102093.0,1214005.0,1310048.0,1258564.0,1044008.0,1128566.0,500457.0,730610.0,600377.0,1294021.0,1326940.0,1081226.0,959387.0,794345.0,524768.0,1340484.0,664697.0,975121.0,1696141.0,2198866.0,1314459.0,1066172.0,1258087.0,1915135.0,1293641.0,1617344.0,2196587.0,1357642.0,892790.0,978970.0,2188212.0,1242209.0,884301.0,1372519.0,1184714.0,1442728.0,734646.0,956538.0,1967432.0,835940.0,786673.0,381538.0,630808.0,864919.0,721029.0,1069946.0,750285.0,1418865.0,906435.0,658121.0,466433.0,826464.0,1102170.0,4708055.0,2676696.0,2566988.0,1822849.0,1049849.0,1896447.0,1724437.0,1570646.0,846636.0,1974590.0,2121560.0,846636.0,1143214.0,1398246.0,1910133.0,2084251.0,1536922.0,1304048.0,1332556.0,1319742.0,1009604.0,1778770.0,1351627.0,995787.0,891459.0,685316.0,863929.0,809406.0,866886.0,1301360.0,1714443.0,997596.0,1009308.0,1589333.0,938689.0,1210286.0,1038935.0,797466.0,1370412.0,1353068.0,1856416.0,1278714.0,1034237.0,1442149.0,1018923.0,1123327.0,1914062.0,2132748.0,1509115.0,1592573.0,1749282.0,1329388.0,1299914.0,1449924.0,1102927.0,1197958.0,1525050.0,1190333.0,801757.0,1368838.0,1004254.0,1321317.0,1581554.0,1797676.0,2019485.0,2265914.0,1977380.0,1415846.0,1066742.0,1021385.0,2031351.0,1238720.0,1156574.0,1140013.0,984577.0,781619.0,639602.0,639074.0,877080.0,926961.0,908556.0,1247762.0,974877.0,951966.0,1396206.0,1809722.0,1058455.0,794221.0,1502437.0,438775.0,1196328.0,1832379.0,1157004.0,2045070.0,1540781.0,1337199.0,1004510.0,893462.0,1128638.0,786147.0,948848.0,2037387.0,1292135.0,1834927.0,2537296.0,1205097.0,1182687.0,1030407.0,645172.0,574938.0,491308.0,548021.0,533215.0,867713.0
-0.28,0.0,-1.05,0.34,0.46,0.21,0.01,-1.09,1.16,-0.29,2.55,0.49,-0.17,-1.5,0.09,-1.81,0.59,-0.33,0.57,0.48,0.08,-2.82,-0.24,0.67,0.74,0.97,0.9,0.38,-0.14,1.11,0.84,-0.94,0.7,0.88,0.55,-0.48,1.23,1.36,0.44,1.89,1.92,0.22,-0.23,0.19,-0.14,0.49,-1.75,0.0,-1.66,0.0,0.39,0.75,-1.86,0.13,-0.67,-1.44,-0.63,-1.5,-0.45,0.39,0.37,0.78,0.55,0.06,-1.36,-2.1,-0.19,1.5,-3.01,-0.79,-0.3,-0.05,0.81,-0.27,-0.78,-0.25,-0.18,-1.06,-0.45,-1.15,0.33,0.67,-0.26,1.39,0.51,0.37,1.21,-0.67,0.19,0.79,-0.79,-0.52,-0.84,0.27,0.05,-0.3,0.57,-0.33,1.3,-0.69,0.88,0.28,0.34,0.26,0.16,1.12,-0.22,0.34,0.24,0.7,0.55,-0.89,0.22,-0.36,-0.01,0.67,-0.09,0.37,-0.25,-0.28,0.53,-1.07,1.22,-0.89,-0.68,-0.13,0.73,-0.31,-0.55,0.01,0.87,0.5,-0.25,-1.58,-0.48,1.34,0.68,0.08,0.42,0.07,0.01,-0.56,-0.31,-1.75,-0.41,-2.73,0.7,1.25,-0.52,0.49,-1.16,1.22,-0.73,0.09,0.64,0.01,0.11,0.73,0.27,0.04,0.19,-0.27,0.56,-1.1,-0.44,0.38,-0.04,-0.6,-1.1,-0.11,0.11,0.1,-1.33,0.64,0.21,-0.82,-0.02,0.57,0.19,0.47,-0.58,-1.64,-0.48,0.92,-0.99,0.66,1.09,-1.17,-2.67,0.15,-0.09,-1.13,-1.98,1.54,-1.98,-1.11,-3.35,0.23,2.56,3.97,1.31,1.7,2.05,-1.77,-0.53,0.49,-0.28,0.31,-1.48,-0.67,4.45,-1.84,-0.89,2.42,0.55,1.92,-0.15,-0.5,-0.67,0.5,-0.61,0.67,1.78,0.98,1.41,0.16,-0.02,0.11,0.9,0.26,1.2,-1.04,1.83,0.3,-0.53,0.22,2.34,-2.38,0.87,-0.91,-1.45,0.19,2.58,1.29,-0.09,0.48,0.44,-0.19,0.11,0.78,0.06,-0.55,-0.88,-1.79,-0.89,0.47,1.82,-1.63,-0.38,-0.21,1.33,-1.46,2.16,-1.47,0.28,1.32,-1.59,0.36,-0.02,-2.19,1.86,0.07,1.24,0.23,0.42,0.7,0.34,-1.77,-0.47,0.15,1.39,1.54,0.77,0.97,0.51,1.0,0.64,-0.04,-0.17,0.3,-0.25,0.41,-1.17,1.11,-0.19,-0.7,-0.08,-1.13,-1.32,2.16,-0.4,0.67,-0.61,1.86,-1.0,0.86,-1.15,-0.45,-1.66,0.36,0.47,0.09,1.3,-0.44,0.08,0.78,0.43,0.91,0.98,0.25,0.12,-0.72,-0.73,-3.14,0.74,-0.18,-0.58,-0.38,-0.1,-1.28,-1.31,0.11,1.23,0.54,1.41,0.08,-2.46,-0.3,1.7,0.64,-0.6,-1.01,0.45,0.79,1.51,-0.38,-0.44,-0.53,0.45,0.28,-0.85,0.81,0.77,-0.19,0.43,-0.21,0.33,-0.08,0.36,-0.16,0.39,0.72,0.59,-0.2,-0.21,0.78,0.4,0.69,0.14,0.17,-0.19,-0.31,-0.36,-0.13,-2.16,-0.97,0.72,-1.24,0.29,-0.27,-0.81,-2.02,0.78,0.34,1.11,-0.34,-5.27,-0.66,-1.1,-2.91,-0.03,-2.47,-2.29,-0.3,3.91,1.49,0.02,-0.62,0.56,-1.46,-1.1,-1.03,-0.94,1.89,-0.95,0.39,-0.74,1.06,0.05,0.15,-1.28,-2.04,-1.35,0.23,-3.82,0.42,0.52,1.26,-0.27,-1.92,0.77,-0.08,0.64,1.46,-1.26,0.55,0.42,-2.15,0.12,0.65,-0.61,0.08,-0.1,-0.61,-1.81,-0.94,-0.32,-2.99,1.26,0.6,7.2,3.61,1.15,-1.21,1.41,1.6,0.27,0.68,0.64,0.47,1.45,0.54,1.15,0.21,-1.08,2.02,-0.51,-0.17,-0.54,0.86,-0.12,-0.32,-0.22,0.14,-0.79,-0.51,0.51,-0.98,-0.27,0.1,-1.4,1.49,1.04,-0.19,2.42,-0.86,1.12,0.47,0.96,0.55,-0.07,-0.62,0.37,-0.86,-1.1,1.45,-0.28,-1.17,-1.2,-0.45,-0.73,-0.83,-0.17,1.04,-2.29,-1.7,0.31,0.86,0.86,0.45,-0.3,-0.24,-0.56,-0.56,0.69,-0.32,0.03,0.18,-1.19,-0.39,-0.21,-2.93,0.28,0.26,-1.2,3.07,-1.08,0.37,-1.7,1.1,0.37,-1.2,2.4,1.88,-1.93,0.82,0.37,-2.44,-2.56,2.37,-0.33,-0.08,1.72,0.56,0.69,-0.51,0.97,-0.15,-1.67,2.07,0.9,0.43,-1.44,2.03,0.11,1.34,1.82,1.53,-0.87,0.08,0.31,0.86,0.4,0.81,2.39,2.5,-0.72,-0.73,1.04,0.23,0.75,0.01,1.77,0.9,-0.41,2.67,-0.96,-0.06,0.71,-0.74,0.8,-0.39,0.85,0.81,0.77,0.66,0.75,0.31,-0.78,-1.44,1.84,-0.4,0.18,-0.9,0.88,-2.01,1.06,-0.59,0.08,-0.45,0.61,-0.7,0.93,-1.32,-0.74,-0.87,0.97,-0.81,-0.54,-0.36,-0.17,0.24,1.19,0.06,-0.65,0.64,-0.97,0.67,0.84,-0.4,0.02,-0.38,2.89,0.22,-0.53,-1.25,-0.23,-0.68,1.34,1.18,-0.86,-0.59,-0.59,1.52,-5.36,-2.72,0.61,0.55,1.58,0.2,-1.27,0.77,-0.25,2.14,-0.02,1.15,0.37,-1.18,0.25,0.3,-0.26,1.24,-0.41,-0.94,-0.64,-0.31,-0.78,-0.24,-0.28,0.57,-1.19,0.2,-0.2,-0.17,0.03,0.02,0.0,-0.08,-0.62,0.33,-0.86,-0.07,0.18,1.51,0.78,0.57,0.11,0.65,-1.22,1.69,-0.07,-1.2,-0.04,0.3,0.25,-0.51,-1.24,-3.72,2.28,-0.55,-0.39,0.55,-0.42,0.15,0.85,0.66,-0.37,0.16,-0.93,0.45,0.65,-1.59,0.71,0.17,-1.75,-0.72,0.79,-3.46,-0.46,-0.95,-0.45,1.11,-0.15,0.06,-0.94,-0.26,-0.03,0.96,0.49,0.67,1.51,0.32,-0.57,-0.22,-0.51,-0.47,-1.01,0.79,0.19,0.91,2.93,0.96,-0.55,-0.35,0.13,0.4,-0.16,-1.04,0.63,0.17,1.0,0.5,-0.57,0.65,-2.53,-1.18,-0.71,0.63,0.24,1.87,1.23,-0.18,-0.42,-1.08,-0.9,-0.1,-0.15,0.16,-0.62,0.48,-0.94,-0.35,0.8,-1.67,0.61,-0.67,-0.18,1.56,-0.84,-0.18,1.3,0.32,0.38,0.42,-0.51,0.18,0.72,-0.34,0.97,1.5,1.06,-1.12,0.21,0.33,-0.12,-1.71,0.91,0.07,-0.17,-0.4,-0.03,0.02,-0.06,0.34,-0.13,0.66,0.5,-0.03,0.66,0.5,0.41,-0.63,1.18,-0.63,0.11,-0.16,-0.92,-0.37,-0.75,-0.36,6.19,-3.07,-1.85,0.42,-0.74,1.15,-1.03,0.1,1.34,-0.91,-0.15,0.69,-0.71,1.06,1.12,0.88,-0.22,0.14,-0.42,-0.31,0.0,0.09,0.9,-0.1,0.57,-0.44,-0.58,0.57,-0.13,0.03,0.74,-0.72,-0.02,2.64,-0.41,0.71,-1.21,-0.21,-0.22,-0.12,0.56,0.56,-1.32,-0.62,-0.09,0.15,-0.17,0.82,-0.51,-1.23,-0.23,1.62,-0.53,0.22,0.14,-0.26,0.52,-0.52,-0.31,2.67,1.28,-1.64,0.52,-0.72,0.57,1.86,0.14,1.51,-0.18,0.85,-0.04,-0.4,-0.1,-0.32,-0.2,0.18,0.27,0.0,0.07,-1.41,-0.22,0.0,-0.54,-0.39,0.65,0.25,-0.13,0.17,0.61,0.16,0.16,0.11,0.47,-2.87,0.12,0.2,0.91,-0.38,-0.68,-0.12,-1.07,0.07,1.29,-1.79,0.07,-0.06,-0.86,0.33,-1.47,-0.83,0.85,0.34,0.57,-0.88,-0.35,0.29,1.88,-0.39,-0.2,-0.26,0.27,0.41,0.19,0.1,-0.21,-1.02,0.28,-0.36,-0.04,1.42,0.61,-1.36,1.23,0.05,0.6,1.34,0.29,0.33,-0.2,0.93,-0.88,-0.65,0.93,-0.08,2.34,0.39,0.17,0.56,0.4,-0.43,-0.26,0.03,1.15,-0.38,-0.6,-0.16,-0.27,3.31,2.81,-0.79,-0.21,0.5,0.08,-0.57,-1.39,-0.33,-0.42,0.06,0.35,-0.22,-0.21,-0.1,0.08,-0.01,0.29,0.86,-0.7,0.22,-0.17,0.8,-0.27,-0.36,0.29,-0.1,1.08,-0.47,-0.25,-1.38,-0.34,-0.62,-0.41,0.08,-0.32,-0.38,0.15,0.17,-2.8,0.4,0.66,-0.15,-0.52,-0.49,0.12,-0.12,0.03,0.48,-0.52
